     4     2   489   382   324   261     0     1.00000   0
   0.00   0.00   0.00   0.00   0.00   0.00   0.00   0.00   0.00   0.00
   0.00   0.00   0.00   0.00   0.00   0.00   0.00   0.00   0.00   0.00
   0.00   0.00   0.00   0.00   0.00   0.00   0.00   0.00   0.00   0.00
   0.00   0.00   0.00   0.00   0.00   0.00   0.00   0.00   0.00   0.00
   0.00   0.00   0.00   0.00   0.00   0.00   0.00   0.00   0.00   0.00
   0.00   0.00   0.00   0.00   0.00   0.00   0.00   0.00   0.00   0.00
   0.00   0.00   0.00   0.00   0.00   0.00   0.00   0.00   0.00   0.00
   0.00   0.00   0.00   0.00   0.00   0.00   0.00   0.00   0.00   0.00
   0.00
   1.0008465  -0.0005027   0.0005027   1.0008464       0.263       0.113
   1.0006126  -0.0004088   0.0004088   1.0006124       0.245       0.058
   1.0003769  -0.0003150   0.0003150   1.0003769       0.088       0.181
   1.0001413  -0.0002212   0.0002212   1.0001413      -0.037       0.148
   0.9999053  -0.0001274   0.0001274   0.9999053      -0.122       0.107
   0.9996693  -0.0000337   0.0000337   0.9996694      -0.247       0.130
   0.9994325   0.0000600  -0.0000600   0.9994324      -0.258       0.040
   0.9995275   0.0000466  -0.0000466   0.9995274      -0.171      -0.018
   0.9996230   0.0000331  -0.0000331   0.9996230      -0.151      -0.032
   0.9997184   0.0000197  -0.0000197   0.9997184      -0.059       0.007
   0.9998140   0.0000062  -0.0000062   0.9998140      -0.099       0.074
   0.9999094  -0.0000072   0.0000072   0.9999094      -0.020      -0.036
   1.0000054  -0.0000207   0.0000207   1.0000052       0.096       0.009
   1.0001011  -0.0000122   0.0000122   1.0001011       0.036      -0.018
   1.0000917  -0.0000037   0.0000037   1.0000918       0.014       0.007
   1.0000824   0.0000049  -0.0000049   1.0000824       0.016      -0.001
   1.0000731   0.0000134  -0.0000134   1.0000731      -0.057       0.055
   1.0000639   0.0000219  -0.0000219   1.0000639       0.027      -0.013
   1.0000544   0.0000304  -0.0000304   1.0000544      -0.029       0.012
   1.0000449   0.0000324  -0.0000324   1.0000449      -0.001      -0.046
   1.0000356   0.0000345  -0.0000345   1.0000355       0.065      -0.023
   1.0000247   0.0000366  -0.0000366   1.0000247       0.034      -0.056
   1.0000135   0.0000386  -0.0000386   1.0000136       0.043      -0.021
   1.0000025   0.0000407  -0.0000407   1.0000025      -0.021      -0.049
   0.9999917   0.0000428  -0.0000428   0.9999917       0.061      -0.036
   0.9999806   0.0000493  -0.0000493   0.9999806       0.024      -0.068
   0.9999695   0.0000558  -0.0000558   0.9999695       0.032      -0.063
   0.9999586   0.0000624  -0.0000624   0.9999585      -0.099      -0.026
   0.9999719   0.0000689  -0.0000689   0.9999719      -0.013      -0.017
   0.9999849   0.0000755  -0.0000755   0.9999850      -0.047      -0.028
   0.9999983   0.0000820  -0.0000820   0.9999983      -0.072      -0.113
   1.0000114   0.0000886  -0.0000886   1.0000113      -0.040      -0.048
   1.0000248   0.0000644  -0.0000644   1.0000248      -0.009      -0.050
   1.0000378   0.0000402  -0.0000402   1.0000378       0.046      -0.010
   1.0000170   0.0000160  -0.0000160   1.0000170       0.016      -0.018
   0.9999962  -0.0000082   0.0000082   0.9999962       0.033       0.043
   0.9999753  -0.0000324   0.0000324   0.9999753       0.017      -0.023
   0.9999543  -0.0000566   0.0000566   0.9999543       0.039       0.050
   0.9999335  -0.0000513   0.0000513   0.9999335      -0.071      -0.048
   0.9999126  -0.0000460   0.0000460   0.9999126       0.091       0.084
   0.9998918  -0.0000408   0.0000408   0.9998918       0.099       0.003
   0.9999126  -0.0000355   0.0000355   0.9999125      -0.185       0.015
   0.9999334  -0.0000303   0.0000303   0.9999334      -0.159      -0.014
   0.9999542  -0.0000250   0.0000250   0.9999542      -0.044      -0.023
   0.9999750  -0.0000348   0.0000348   0.9999751      -0.075      -0.038
   0.9999957  -0.0000447   0.0000447   0.9999957       0.013       0.080
   1.0000166  -0.0000545   0.0000545   1.0000166       0.035       0.048
   1.0000372  -0.0000643   0.0000643   1.0000372       0.033       0.055
   1.0000334  -0.0000741   0.0000741   1.0000335      -0.022       0.100
   1.0000294  -0.0000840   0.0000840   1.0000294      -0.002      -0.052
   1.0000254  -0.0000509   0.0000509   1.0000255      -0.051       0.024
   1.0000217  -0.0000179   0.0000179   1.0000217      -0.008       0.006
   1.0000175   0.0000151  -0.0000151   1.0000175       0.034      -0.034
   1.0000136   0.0000481  -0.0000481   1.0000136       0.002       0.043
   1.0000097   0.0000811  -0.0000811   1.0000097       0.020      -0.107
   0.9999990   0.0001142  -0.0001142   0.9999990      -0.025      -0.005
   0.9999883   0.0001472  -0.0001472   0.9999883      -0.013      -0.109
   0.9999781   0.0000754  -0.0000754   0.9999781       0.071      -0.045
   0.9999673   0.0000035  -0.0000035   0.9999673      -0.042      -0.019
   0.9999568  -0.0000683   0.0000683   0.9999567       0.025      -0.011
   0.9999461  -0.0001401   0.0001401   0.9999461       0.013       0.083
   0.9999574  -0.0002119   0.0002119   0.9999574       0.029       0.095
   0.9999685  -0.0002837   0.0002837   0.9999684      -0.032       0.141
   0.9999795  -0.0002133   0.0002133   0.9999795      -0.042       0.347
   0.9999908  -0.0001428   0.0001428   0.9999909      -0.227       0.267
   1.0000020  -0.0000723   0.0000724   1.0000019      -0.012       0.254
   1.0000131  -0.0000019   0.0000019   1.0000131      -0.064      -0.076
   1.0000243   0.0000686  -0.0000686   1.0000243       0.007      -0.064
   1.0000427   0.0001391  -0.0001391   1.0000427       0.199      -0.127
   1.0000609   0.0001729  -0.0001729   1.0000610       0.048      -0.095
   1.0000793   0.0002067  -0.0002067   1.0000792       0.050      -0.027
   1.0000979   0.0002405  -0.0002405   1.0000979       0.037      -0.253
   1.0001159   0.0002743  -0.0002743   1.0001160      -0.027      -0.152
   1.0001345   0.0003082  -0.0003082   1.0001345       0.019      -0.011
   1.0001531   0.0003420  -0.0003420   1.0001531       0.165      -0.059
   1.0001060   0.0002121  -0.0002121   1.0001061      -0.023      -0.183
   1.0000596   0.0000821  -0.0000821   1.0000596       0.139      -0.279
   1.0000125  -0.0000478   0.0000478   1.0000125       0.178      -0.102
   0.9999657  -0.0001777   0.0001777   0.9999655       0.021       0.001
   0.9999188  -0.0003076   0.0003076   0.9999188      -0.153       0.260
   0.9998718  -0.0004374   0.0004374   0.9998718      -0.214       0.213
   0.00   0.00   0.00   0.00   0.00   0.00   0.00   0.00   0.00   0.00
   0.00   0.00   0.00   0.00   0.00   0.00   0.00   0.00   0.00   0.00
   0.00   0.00   0.00   0.00   0.00   0.00   0.00   0.00   0.00   0.00
   0.00   0.00   0.00   0.00   0.00   0.00   0.00   0.00   0.00   0.00
   0.00   0.00   0.00   0.00   0.00   0.00   0.00   0.00   0.00   0.00
   0.00   0.00   0.00   0.00   0.00   0.00   0.00   0.00   0.00   0.00
   0.00   0.00   0.00   0.00   0.00   0.00   0.00   0.00   0.00   0.00
   0.00   0.00   0.00   0.00   0.00   0.00   0.00   0.00   0.00   0.00
   0.00
   1.0001621   0.0003360  -0.0003360   1.0001621       0.125       0.015
   1.0000712   0.0003040  -0.0003040   1.0000710       0.113      -0.056
   0.9999797   0.0002721  -0.0002721   0.9999796       0.047       0.041
   0.9998879   0.0002402  -0.0002402   0.9998879      -0.042       0.094
   0.9997966   0.0002083  -0.0002083   0.9997966      -0.019       0.041
   0.9997048   0.0001764  -0.0001764   0.9997049      -0.149       0.022
   0.9996130   0.0001445  -0.0001445   0.9996130       0.005      -0.114
   0.9996765   0.0001320  -0.0001320   0.9996762      -0.020      -0.097
   0.9997400   0.0001196  -0.0001196   0.9997399      -0.062      -0.073
   0.9998037   0.0001071  -0.0001071   0.9998036       0.051      -0.001
   0.9998675   0.0000947  -0.0000947   0.9998675      -0.039      -0.011
   0.9999315   0.0000822  -0.0000822   0.9999315      -0.031      -0.037
   0.9999952   0.0000698  -0.0000698   0.9999952       0.081      -0.045
   1.0000592   0.0000365  -0.0000365   1.0000592       0.030      -0.015
   1.0000596   0.0000031  -0.0000031   1.0000596       0.006      -0.038
   1.0000600  -0.0000302   0.0000302   1.0000600       0.004      -0.018
   1.0000602  -0.0000635   0.0000635   1.0000602      -0.018       0.024
   1.0000608  -0.0000968   0.0000968   1.0000608       0.026       0.039
   1.0000609  -0.0001302   0.0001302   1.0000609      -0.014       0.088
   1.0000613  -0.0001300   0.0001300   1.0000613      -0.007       0.055
   1.0000618  -0.0001298   0.0001298   1.0000616       0.042       0.062
   1.0000526  -0.0001296   0.0001296   1.0000525      -0.002       0.021
   1.0000433  -0.0001294   0.0001294   1.0000433       0.017       0.035
   1.0000342  -0.0001292   0.0001292   1.0000343      -0.043       0.030
   1.0000253  -0.0001291   0.0001291   1.0000253       0.011       0.008
   1.0000161  -0.0000944   0.0000944   1.0000162      -0.033      -0.004
   1.0000068  -0.0000598   0.0000598   1.0000068       0.018      -0.010
   0.9999979  -0.0000252   0.0000252   0.9999977      -0.076       0.039
   0.9999870   0.0000094  -0.0000095   0.9999871       0.012       0.001
   0.9999764   0.0000441  -0.0000441   0.9999764      -0.011      -0.017
   0.9999658   0.0000787  -0.0000787   0.9999657      -0.045      -0.061
   0.9999551   0.0001133  -0.0001133   0.9999551      -0.024      -0.018
   0.9999443   0.0000694  -0.0000694   0.9999443      -0.001      -0.031
   0.9999335   0.0000256  -0.0000256   0.9999335       0.024      -0.005
   0.9999603  -0.0000183   0.0000183   0.9999603       0.000      -0.005
   0.9999871  -0.0000622   0.0000622   0.9999871       0.009       0.027
   1.0000137  -0.0001061   0.0001061   1.0000137      -0.026      -0.006
   1.0000404  -0.0001500   0.0001500   1.0000404       0.013       0.033
   1.0000674  -0.0001272   0.0001272   1.0000674      -0.058      -0.039
   1.0000941  -0.0001044   0.0001044   1.0000941       0.063       0.047
   1.0001209  -0.0000816   0.0000816   1.0001209       0.079      -0.027
   1.0000943  -0.0000588   0.0000588   1.0000942      -0.047       0.062
   1.0000679  -0.0000360   0.0000360   1.0000679      -0.048       0.040
   1.0000415  -0.0000133   0.0000133   1.0000415       0.002       0.021
   1.0000150   0.0000139  -0.0000139   1.0000150      -0.022      -0.001
   0.9999884   0.0000412  -0.0000412   0.9999884       0.018       0.047
   0.9999621   0.0000684  -0.0000684   0.9999621       0.031      -0.019
   0.9999354   0.0000956  -0.0000956   0.9999355       0.014      -0.027
   0.9999280   0.0001228  -0.0001228   0.9999280      -0.029       0.028
   0.9999202   0.0001500  -0.0001500   0.9999202      -0.010      -0.070
   0.9999127   0.0001214  -0.0001214   0.9999127      -0.053       0.017
   0.9999053   0.0000929  -0.0000928   0.9999052       0.001       0.022
   0.9998974   0.0000643  -0.0000643   0.9998974       0.004      -0.090
   0.9998899   0.0000357  -0.0000357   0.9998899       0.003       0.003
   0.9998823   0.0000072  -0.0000072   0.9998823      -0.007      -0.065
   0.9999266  -0.0000214   0.0000214   0.9999266      -0.042       0.044
   0.9999708  -0.0000500   0.0000500   0.9999708      -0.028      -0.031
   1.0000155  -0.0000329   0.0000329   1.0000155       0.030      -0.030
   1.0000597  -0.0000159   0.0000159   1.0000598      -0.029      -0.027
   1.0001043   0.0000012  -0.0000012   1.0001043      -0.011      -0.024
   1.0001487   0.0000182  -0.0000182   1.0001487       0.092       0.019
   1.0001301   0.0000353  -0.0000353   1.0001301       0.094      -0.015
   1.0001112   0.0000523  -0.0000523   1.0001111       0.055       0.004
   1.0000921   0.0000307  -0.0000307   1.0000921       0.079       0.138
   1.0000737   0.0000091  -0.0000091   1.0000736      -0.039       0.131
   1.0000548  -0.0000126   0.0000126   1.0000548       0.064       0.085
   1.0000360  -0.0000342   0.0000342   1.0000360      -0.020      -0.009
   1.0000173  -0.0000558   0.0000558   1.0000173      -0.063      -0.011
   1.0000321  -0.0000774   0.0000774   1.0000321       0.040      -0.045
   1.0000468  -0.0000754   0.0000754   1.0000470      -0.058       0.022
   1.0000618  -0.0000733   0.0000733   1.0000618      -0.002       0.027
   1.0000767  -0.0000713   0.0000713   1.0000767      -0.032      -0.102
   1.0000914  -0.0000692   0.0000692   1.0000916      -0.010       0.015
   1.0001065  -0.0000672   0.0000672   1.0001066       0.004       0.074
   1.0001215  -0.0000652   0.0000652   1.0001215       0.046       0.018
   1.0000962  -0.0000424   0.0000424   1.0000962      -0.062      -0.050
   1.0000714  -0.0000197   0.0000197   1.0000714       0.048      -0.145
   1.0000460   0.0000030  -0.0000030   1.0000460       0.092      -0.096
   1.0000209   0.0000257  -0.0000257   1.0000209       0.019      -0.044
   0.9999958   0.0000484  -0.0000484   0.9999958      -0.024       0.115
   0.9999706   0.0000711  -0.0000711   0.9999707      -0.039       0.114
   0.00   0.00   0.00   0.00   0.00   0.00   0.00   0.00   0.00   0.00
   0.00   0.00   0.00   0.00   0.00   0.00   0.00   0.00   0.00   0.00
   0.00   0.00   0.00   0.00   0.00   0.00   0.00   0.00   0.00   0.00
   0.00   0.00   0.00   0.00   0.00   0.00   0.00   0.00   0.00   0.00
   0.00   0.00   0.00   0.00   0.00   0.00   0.00   0.00   0.00   0.00
   0.00   0.00   0.00   0.00   0.00   0.00   0.00   0.00   0.00   0.00
   0.00   0.00   0.00   0.00   0.00   0.00   0.00   0.00   0.00   0.00
   0.00   0.00   0.00   0.00   0.00   0.00   0.00   0.00   0.00   0.00
   0.00
   0.9996593   0.0003862  -0.0003862   0.9996593       0.091      -0.072
   0.9997115   0.0002918  -0.0002918   0.9997113       0.020      -0.077
   0.9997644   0.0001973  -0.0001973   0.9997643       0.039      -0.079
   0.9998171   0.0001028  -0.0001028   0.9998171       0.022      -0.018
   0.9998700   0.0000084  -0.0000084   0.9998701       0.004      -0.022
   0.9999230  -0.0000861   0.0000861   0.9999230      -0.002      -0.032
   0.9999757  -0.0001806   0.0001806   0.9999757      -0.004      -0.134
   0.9999827  -0.0001397   0.0001397   0.9999826      -0.025      -0.095
   0.9999895  -0.0000988   0.0000988   0.9999895      -0.028      -0.029
   0.9999962  -0.0000579   0.0000579   0.9999962       0.053      -0.004
   1.0000030  -0.0000171   0.0000171   1.0000030      -0.006      -0.075
   1.0000097   0.0000238  -0.0000238   1.0000097      -0.049      -0.043
   1.0000165   0.0000647  -0.0000647   1.0000165       0.009      -0.106
   1.0000231   0.0000448  -0.0000448   1.0000231      -0.001      -0.017
   1.0000224   0.0000249  -0.0000249   1.0000223      -0.008      -0.034
   1.0000215   0.0000049  -0.0000049   1.0000215       0.020       0.037
   1.0000205  -0.0000150   0.0000150   1.0000205       0.075       0.015
   1.0000198  -0.0000349   0.0000349   1.0000198       0.041       0.019
   1.0000187  -0.0000548   0.0000548   1.0000186       0.075       0.092
   1.0000178  -0.0000478   0.0000478   1.0000178       0.009       0.112
   1.0000168  -0.0000408   0.0000408   1.0000167       0.009       0.081
   1.0000106  -0.0000338   0.0000338   1.0000106       0.006       0.002
   1.0000043  -0.0000267   0.0000267   1.0000043      -0.016       0.027
   0.9999980  -0.0000197   0.0000197   0.9999980      -0.023       0.083
   0.9999917  -0.0000127   0.0000127   0.9999918      -0.023       0.018
   0.9999855  -0.0000071   0.0000071   0.9999855      -0.007       0.044
   0.9999790  -0.0000015   0.0000015   0.9999790      -0.038      -0.012
   0.9999729   0.0000040  -0.0000040   0.9999728       0.050       0.086
   0.9999793   0.0000096  -0.0000096   0.9999793       0.024      -0.003
   0.9999856   0.0000152  -0.0000152   0.9999856       0.012       0.015
   0.9999921   0.0000208  -0.0000208   0.9999921      -0.090       0.046
   0.9999986   0.0000263  -0.0000263   0.9999985      -0.015       0.051
   1.0000051   0.0000164  -0.0000164   1.0000051      -0.040      -0.022
   1.0000112   0.0000066  -0.0000066   1.0000112      -0.002      -0.007
   1.0000104  -0.0000033   0.0000033   1.0000104      -0.002       0.013
   1.0000092  -0.0000132   0.0000132   1.0000093       0.034      -0.032
   1.0000080  -0.0000231   0.0000231   1.0000080      -0.023       0.015
   1.0000069  -0.0000330   0.0000330   1.0000069       0.035      -0.050
   1.0000061  -0.0000367   0.0000367   1.0000060      -0.013       0.094
   1.0000049  -0.0000405   0.0000405   1.0000049       0.070      -0.059
   1.0000038  -0.0000443   0.0000443   1.0000038       0.025      -0.070
   1.0000054  -0.0000480   0.0000480   1.0000052       0.004       0.093
   1.0000068  -0.0000518   0.0000518   1.0000068      -0.004       0.077
   1.0000082  -0.0000556   0.0000556   1.0000082      -0.019       0.017
   1.0000098  -0.0000264   0.0000264   1.0000099      -0.012       0.061
   1.0000111   0.0000027  -0.0000027   1.0000111       0.049      -0.042
   1.0000128   0.0000318  -0.0000318   1.0000128      -0.010      -0.067
   1.0000141   0.0000610  -0.0000610   1.0000141      -0.011      -0.058
   1.0000023   0.0000901  -0.0000901   1.0000023       0.051      -0.024
   0.9999903   0.0001193  -0.0001193   0.9999902      -0.096       0.011
   0.9999783   0.0000996  -0.0000996   0.9999784      -0.002       0.088
   0.9999666   0.0000799  -0.0000799   0.9999666       0.008       0.064
   0.9999543   0.0000602  -0.0000602   0.9999545      -0.065      -0.023
   0.9999425   0.0000405  -0.0000405   0.9999425       0.039       0.002
   0.9999306   0.0000208  -0.0000208   0.9999306      -0.087       0.014
   0.9999436   0.0000011  -0.0000011   0.9999435       0.051       0.030
   0.9999565  -0.0000186   0.0000186   0.9999564      -0.004       0.016
   0.9999696  -0.0000499   0.0000499   0.9999696       0.002      -0.072
   0.9999824  -0.0000813   0.0000813   0.9999824       0.027       0.013
   0.9999955  -0.0001126   0.0001126   0.9999955      -0.044      -0.071
   1.0000086  -0.0001439   0.0001439   1.0000085       0.028      -0.075
   1.0000242  -0.0001752   0.0001752   1.0000242      -0.028      -0.093
   1.0000396  -0.0002065   0.0002065   1.0000397       0.017      -0.054
   1.0000552  -0.0001430   0.0001430   1.0000552       0.162      -0.092
   1.0000707  -0.0000796   0.0000796   1.0000707       0.099       0.180
   1.0000865  -0.0000161   0.0000161   1.0000864       0.048       0.010
   1.0001020   0.0000473  -0.0000473   1.0001022      -0.037       0.079
   1.0001177   0.0001108  -0.0001108   1.0001177      -0.016       0.029
   1.0000851   0.0001742  -0.0001742   1.0000851      -0.044      -0.087
   1.0000525   0.0001663  -0.0001663   1.0000527      -0.014       0.015
   1.0000199   0.0001584  -0.0001584   1.0000199       0.000      -0.022
   0.9999872   0.0001505  -0.0001505   0.9999874      -0.151       0.129
   0.9999545   0.0001426  -0.0001426   0.9999546       0.014       0.141
   0.9999222   0.0001346  -0.0001346   0.9999222       0.121       0.019
   0.9998893   0.0001267  -0.0001267   0.9998893       0.043      -0.047
   0.9999129   0.0000329  -0.0000329   0.9999129       0.011       0.096
   0.9999367  -0.0000610   0.0000610   0.9999367      -0.151       0.009
   0.9999604  -0.0001549   0.0001549   0.9999604      -0.130      -0.084
   0.9999841  -0.0002488   0.0002488   0.9999840      -0.058      -0.029
   1.0000079  -0.0003427   0.0003427   1.0000079       0.092      -0.028
   1.0000315  -0.0004365   0.0004365   1.0000315       0.076       0.025
   0.00   0.00   0.00   0.00   0.00   0.00   0.00   0.00   0.00   0.00
   0.00   0.00   0.00   0.00   0.00   0.00   0.00   0.00   0.00   0.00
   0.00   0.00   0.00   0.00   0.00   0.00   0.00   0.00   0.00   0.00
   0.00   0.00   0.00   0.00   0.00   0.00   0.00   0.00   0.00   0.00
   0.00   0.00   0.00   0.00   0.00   0.00   0.00   0.00   0.00   0.00
   0.00   0.00   0.00   0.00   0.00   0.00   0.00   0.00   0.00   0.00
   0.00   0.00   0.00   0.00   0.00   0.00   0.00   0.00   0.00   0.00
   0.00   0.00   0.00   0.00   0.00   0.00   0.00   0.00   0.00   0.00
   0.00
   0.9998156   0.0000784  -0.0000784   0.9998156      -0.149      -0.065
   0.9998594   0.0000202  -0.0000202   0.9998593      -0.152      -0.085
   0.9999033  -0.0000380   0.0000380   0.9999033       0.014      -0.072
   0.9999470  -0.0000963   0.0000963   0.9999470       0.094      -0.026
   0.9999911  -0.0001546   0.0001546   0.9999911       0.065       0.009
   1.0000352  -0.0002128   0.0002128   1.0000352       0.163       0.026
   1.0000790  -0.0002711   0.0002711   1.0000790      -0.001      -0.040
   1.0000743  -0.0002632   0.0002632   1.0000743      -0.015      -0.092
   1.0000694  -0.0002552   0.0002552   1.0000694       0.001      -0.050
   1.0000645  -0.0002473   0.0002473   1.0000645      -0.009      -0.162
   1.0000595  -0.0002393   0.0002393   1.0000595       0.018      -0.051
   1.0000547  -0.0002314   0.0002314   1.0000546      -0.084      -0.075
   1.0000497  -0.0002234   0.0002234   1.0000497      -0.087      -0.172
   1.0000447  -0.0001562   0.0001562   1.0000447      -0.089      -0.046
   1.0000309  -0.0000889   0.0000889   1.0000309      -0.058       0.001
   1.0000168  -0.0000217   0.0000217   1.0000168      -0.004       0.026
   1.0000031   0.0000456  -0.0000456   1.0000031       0.037       0.079
   0.9999893   0.0001128  -0.0001128   0.9999893       0.008       0.025
   0.9999752   0.0001800  -0.0001800   0.9999752       0.090       0.092
   0.9999613   0.0001696  -0.0001696   0.9999613       0.052       0.090
   0.9999472   0.0001592  -0.0001592   0.9999471       0.067       0.020
   0.9999479   0.0001489  -0.0001489   0.9999479       0.029       0.026
   0.9999486   0.0001385  -0.0001385   0.9999486       0.052       0.030
   0.9999493   0.0001281  -0.0001281   0.9999492       0.043       0.084
   0.9999503   0.0001177  -0.0001177   0.9999503       0.040       0.020
   0.9999510   0.0001090  -0.0001090   0.9999510       0.040       0.030
   0.9999517   0.0001004  -0.0001004   0.9999517       0.009       0.042
   0.9999527   0.0000918  -0.0000918   0.9999526       0.069       0.130
   0.9999686   0.0000831  -0.0000831   0.9999686       0.046       0.056
   0.9999845   0.0000745  -0.0000745   0.9999845       0.016       0.082
   1.0000007   0.0000659  -0.0000659   1.0000007      -0.082       0.138
   1.0000169   0.0000572  -0.0000572   1.0000168      -0.022       0.095
   1.0000328   0.0000521  -0.0000521   1.0000328      -0.063       0.056
   1.0000488   0.0000470  -0.0000470   1.0000486      -0.025       0.004
   1.0000430   0.0000419  -0.0000419   1.0000430      -0.029       0.010
   1.0000371   0.0000368  -0.0000368   1.0000371       0.030      -0.024
   1.0000311   0.0000317  -0.0000317   1.0000311      -0.015      -0.017
   1.0000253   0.0000267  -0.0000267   1.0000253       0.050      -0.049
   1.0000196   0.0000307  -0.0000307   1.0000196      -0.015       0.051
   1.0000136   0.0000347  -0.0000347   1.0000136       0.111      -0.114
   1.0000076   0.0000387  -0.0000387   1.0000076       0.038      -0.125
   1.0000014   0.0000427  -0.0000427   1.0000013      -0.016       0.143
   0.9999949   0.0000467  -0.0000467   0.9999949      -0.026       0.132
   0.9999884   0.0000507  -0.0000507   0.9999884      -0.020       0.025
   0.9999819   0.0000242  -0.0000242   0.9999819      -0.033       0.050
   0.9999756  -0.0000023   0.0000023   0.9999756       0.063      -0.047
   0.9999691  -0.0000287   0.0000287   0.9999691       0.007      -0.044
   0.9999626  -0.0000552   0.0000552   0.9999626       0.016      -0.048
   0.9999769  -0.0000817   0.0000817   0.9999769       0.055      -0.030
   0.9999908  -0.0001082   0.0001082   0.9999908      -0.101      -0.024
   1.0000049  -0.0000738   0.0000738   1.0000049      -0.003       0.031
   1.0000193  -0.0000395   0.0000395   1.0000193      -0.010       0.014
   1.0000333  -0.0000051   0.0000051   1.0000333      -0.039       0.026
   1.0000474   0.0000292  -0.0000292   1.0000474       0.035       0.056
   1.0000615   0.0000636  -0.0000636   1.0000615      -0.099       0.071
   1.0000417   0.0000979  -0.0000979   1.0000417       0.053       0.096
   1.0000218   0.0001323  -0.0001323   1.0000219      -0.025       0.097
   1.0000025   0.0000642  -0.0000642   1.0000025      -0.003      -0.037
   0.9999826  -0.0000039   0.0000039   0.9999826       0.009       0.014
   0.9999629  -0.0000720   0.0000720   0.9999628      -0.045      -0.096
   0.9999430  -0.0001401   0.0001401   0.9999431      -0.015      -0.158
   0.9999640  -0.0002081   0.0002081   0.9999640      -0.062      -0.185
   0.9999849  -0.0002762   0.0002762   0.9999847      -0.053      -0.185
   1.0000056  -0.0002412   0.0002412   1.0000056       0.176      -0.159
   1.0000266  -0.0002062   0.0002062   1.0000266       0.191       0.118
   1.0000477  -0.0001712   0.0001712   1.0000476       0.165      -0.040
   1.0000684  -0.0001362   0.0001362   1.0000684      -0.127       0.014
   1.0000894  -0.0001012   0.0001012   1.0000894      -0.075      -0.022
   1.0000678  -0.0000662   0.0000662   1.0000678      -0.166      -0.185
   1.0000460   0.0000019  -0.0000019   1.0000463      -0.042       0.011
   1.0000243   0.0000701  -0.0000701   1.0000243       0.027       0.029
   1.0000027   0.0001382  -0.0001382   1.0000027      -0.123       0.185
   0.9999808   0.0002063  -0.0002063   0.9999809       0.050       0.204
   0.9999592   0.0002744  -0.0002744   0.9999592       0.174       0.094
   0.9999374   0.0003426  -0.0003426   0.9999374       0.119       0.007
   0.9999011   0.0002759  -0.0002758   0.9999011      -0.001       0.212
   0.9998654   0.0002091  -0.0002091   0.9998652      -0.230       0.064
   0.9998289   0.0001424  -0.0001424   0.9998289      -0.140      -0.083
   0.9997928   0.0000757  -0.0000757   0.9997926       0.028      -0.020
   0.9997569   0.0000090  -0.0000090   0.9997569       0.305      -0.056
   0.9997203  -0.0000577   0.0000577   0.9997204       0.258      -0.023
   0.00   0.00   0.00   0.00   0.00   0.00   0.00   0.00   0.00   0.00
   0.00   0.00   0.00   0.00   0.00   0.00   0.00   0.00   0.00   0.00
   0.00   0.00   0.00   0.00   0.00   0.00   0.00   0.00   0.00   0.00
   0.00   0.00   0.00   0.00   0.00   0.00   0.00   0.00   0.00   0.00
   0.00   0.00   0.00   0.00   0.00   0.00   0.00   0.00   0.00   0.00
   0.00   0.00   0.00   0.00   0.00   0.00   0.00   0.00   0.00   0.00
   0.00   0.00   0.00   0.00   0.00   0.00   0.00   0.00   0.00   0.00
   0.00   0.00   0.00   0.00   0.00   0.00   0.00   0.00   0.00   0.00
   0.00
   1.0004860  -0.0002838   0.0002838   1.0004860       0.312       0.157
   1.0003459  -0.0002147   0.0002147   1.0003457       0.296       0.188
   1.0002047  -0.0001457   0.0001457   1.0002046       0.096       0.106
   1.0000632  -0.0000767   0.0000767   1.0000632      -0.040       0.016
   0.9999218  -0.0000077   0.0000077   0.9999217      -0.104      -0.035
   0.9997804   0.0000613  -0.0000613   0.9997803      -0.230      -0.130
   0.9996382   0.0001302  -0.0001302   0.9996383      -0.212      -0.092
   0.9997069   0.0001074  -0.0001074   0.9997069      -0.121      -0.034
   0.9997759   0.0000846  -0.0000846   0.9997759      -0.099      -0.037
   0.9998448   0.0000619  -0.0000619   0.9998447      -0.123       0.041
   0.9999136   0.0000391  -0.0000391   0.9999136      -0.087      -0.009
   0.9999828   0.0000163  -0.0000163   0.9999828       0.041       0.024
   1.0000520  -0.0000065   0.0000065   1.0000520       0.053       0.122
   1.0001210  -0.0000013   0.0000013   1.0001210       0.080       0.006
   1.0000993   0.0000039  -0.0000039   1.0000993       0.058      -0.032
   1.0000776   0.0000092  -0.0000092   1.0000776       0.012      -0.036
   1.0000559   0.0000144  -0.0000144   1.0000559      -0.042      -0.060
   1.0000343   0.0000196  -0.0000196   1.0000343      -0.002       0.004
   1.0000125   0.0000248  -0.0000248   1.0000125      -0.064      -0.050
   0.9999907   0.0000166  -0.0000166   0.9999907      -0.010      -0.048
   0.9999689   0.0000084  -0.0000084   0.9999688      -0.036       0.008
   0.9999754   0.0000002  -0.0000002   0.9999754       0.016       0.041
   0.9999819  -0.0000080   0.0000080   0.9999819      -0.007       0.018
   0.9999884  -0.0000163   0.0000163   0.9999884       0.000      -0.051
   0.9999951  -0.0000245   0.0000245   0.9999951       0.002       0.037
   1.0000018  -0.0000095   0.0000095   1.0000018       0.013       0.005
   1.0000082   0.0000055  -0.0000055   1.0000082       0.035       0.023
   1.0000150   0.0000205  -0.0000205   1.0000149      -0.045      -0.097
   1.0000228   0.0000356  -0.0000356   1.0000228      -0.028      -0.029
   1.0000305   0.0000506  -0.0000506   1.0000304       0.010      -0.058
   1.0000385   0.0000656  -0.0000656   1.0000385       0.094      -0.142
   1.0000464   0.0000806  -0.0000806   1.0000463       0.013      -0.131
   1.0000541   0.0000575  -0.0000575   1.0000541       0.076      -0.071
   1.0000619   0.0000345  -0.0000345   1.0000619       0.036      -0.025
   1.0000361   0.0000114  -0.0000114   1.0000360       0.028      -0.025
   1.0000101  -0.0000116   0.0000116   1.0000103      -0.030       0.039
   0.9999840  -0.0000347   0.0000347   0.9999840       0.022       0.020
   0.9999582  -0.0000577   0.0000577   0.9999580      -0.059       0.112
   0.9999323  -0.0000383   0.0000383   0.9999323      -0.035      -0.021
   0.9999062  -0.0000188   0.0000188   0.9999062      -0.164       0.152
   0.9998803   0.0000006  -0.0000006   0.9998803      -0.095       0.155
   0.9999036   0.0000201  -0.0000201   0.9999034      -0.070      -0.123
   0.9999267   0.0000396  -0.0000396   0.9999267      -0.035      -0.118
   0.9999497   0.0000590  -0.0000590   0.9999497      -0.019      -0.045
   0.9999728   0.0000446  -0.0000446   0.9999728       0.007      -0.078
   0.9999959   0.0000301  -0.0000301   0.9999959      -0.055       0.027
