  57.39
  55.68
  54.21
  52.70
  51.16
  49.65
  48.12
  46.65
  45.12
  43.59
  42.10
  40.57
  39.09
  37.57
  36.05
  34.56
  33.04
  31.58
  30.04
  28.54
  26.97
  25.50
  23.93
  22.45
  20.89
  19.37
  17.82
  16.26
  14.82
  13.33
  11.86
  10.45
   8.96
   7.52
   6.00
   4.53
   3.01
   1.53
   0.01
  -1.45
  -2.97
  -4.47
  -6.02
  -7.52
  -9.09
 -10.61
 -12.11
 -13.61
 -15.15
 -16.65
 -18.22
 -19.69
 -21.26
 -22.78
 -24.32
 -25.84
 -27.38
 -28.90
 -28.94
 -30.45
 -31.97
 -33.52
 -35.08
 -36.53
 -38.03
 -39.51
 -40.97
 -42.43
 -43.87
 -45.39
 -46.81
 -48.29
 -49.83
 -51.36
 -52.82
 -54.36
 -55.89
 -57.49
 -59.03
