   1.0000185  -0.0172812   0.0153775   0.9998837      -2.786      -0.538
   1.0002525  -0.0233486   0.0216924   1.0001234      -3.198      -0.426
   1.0008235  -0.0271805   0.0257416   1.0006946      -3.416      -0.545
   1.0014067  -0.0268150   0.0255795   1.0012717      -3.065      -0.281
   0.9988081  -0.0256607   0.0246634   1.0005032      -3.306      -0.198
   0.9994546  -0.0254338   0.0246121   1.0011470      -3.125      -0.307
   0.9994782  -0.0259160   0.0252609   1.0011671      -2.934      -0.246
   0.9993254  -0.0259305   0.0254305   1.0010097      -2.726      -0.196
   0.9997705  -0.0261410   0.0257881   1.0014526      -2.578      -0.155
   1.0007019  -0.0271949   0.0269539   1.0013176      -2.443      -0.097
   1.0014139  -0.0274430   0.0273339   1.0020269      -2.330      -0.068
   1.0013345  -0.0276159   0.0276327   1.0019441      -2.297       0.151
   1.0011209  -0.0283378   0.0280315   1.0017391      -2.076       0.108
   1.0013690  -0.0284410   0.0278246   1.0019964      -2.000       0.212
   1.0013402  -0.0297647   0.0288508   1.0019770      -1.944      -0.060
   1.0023062  -0.0289492   0.0277288   1.0023410      -1.868       0.016
   1.0017426  -0.0306169   0.0291190   1.0017875      -1.918      -0.041
   1.0021496  -0.0299136   0.0281443   1.0022012      -1.783      -0.016
   1.0021229  -0.0307325   0.0287012   1.0021836      -1.866      -0.139
   1.0021574  -0.0309857   0.0286980   1.0022262      -1.690      -0.165
   1.0022248  -0.0314227   0.0288856   1.0023018      -1.722      -0.132
   1.0022386  -0.0315066   0.0287230   1.0023229      -1.456      -0.147
   1.0030872  -0.0315146   0.0284659   1.0023868      -1.440      -0.040
   1.0032079  -0.0318214   0.0286733   1.0025110      -1.209      -0.007
   1.0039051  -0.0317679   0.0285202   1.0032096      -1.227       0.056
   1.0039067  -0.0321859   0.0288392   1.0032154      -1.258      -0.060
   1.0040871  -0.0323850   0.0289393   1.0033989      -1.151      -0.117
   1.0040388  -0.0324877   0.0289430   1.0033538      -0.980       0.002
   1.0046521  -0.0320719   0.0284233   1.0039676      -0.917      -0.017
   1.0043348  -0.0333310   0.0295803   1.0036583      -0.876      -0.063
   1.0043600  -0.0331730   0.0293185   1.0036858      -0.778      -0.010
   1.0038264  -0.0335656   0.0296206   1.0036128      -0.627       0.037
   1.0039563  -0.0337379   0.0296857   1.0037465      -0.682       0.127
   1.0040116  -0.0339008   0.0297396   1.0038055      -0.506      -0.029
   1.0038596  -0.0343648   0.0300492   1.0036602      -0.450      -0.023
   1.0039232  -0.0344370   0.0299637   1.0037285      -0.252       0.056
   1.0040427  -0.0345778   0.0299444   1.0038534      -0.229       0.098
   1.0040958  -0.0347988   0.0300027   1.0039123      -0.106      -0.100
   1.0039767  -0.0352232   0.0302622   1.0038003       0.000       0.020
   1.0031565  -0.0354171   0.0302915   1.0029868       0.089      -0.133
   1.0021408  -0.0357752   0.0305350   1.0037073       0.323       0.002
   1.0026358  -0.0357953   0.0303759   1.0042093       0.604       0.063
   1.0026066  -0.0359570   0.0303565   1.0041864       0.595       0.147
   1.0026900  -0.0363055   0.0305187   1.0042778       0.696       0.137
   1.0029284  -0.0357612   0.0297795   1.0045195       0.884       0.058
   1.0030401  -0.0364272   0.0302480   1.0046418       0.782       0.110
   1.0041707  -0.0362741   0.0301762   1.0057721       0.835       0.112
   1.0044857  -0.0362461   0.0302316   1.0060854       0.935       0.101
   1.0040945  -0.0367932   0.0308629   1.0056940       0.956      -0.075
   1.0043278  -0.0370714   0.0312169   1.0058485       1.094      -0.052
   1.0040029  -0.0382692   0.0324921   1.0055280       1.058      -0.197
   1.0039626  -0.0386576   0.0329559   1.0054876       1.115      -0.236
   1.0048811  -0.0368009   0.0311598   1.0063957       1.035      -0.111
   1.0048076  -0.0383618   0.0327906   1.0063289       0.963      -0.131
   1.0048239  -0.0388381   0.0333315   1.0063461       0.981      -0.101
   1.0050941  -0.0388062   0.0333607   1.0066149       0.977      -0.066
   1.0050925  -0.0391562   0.0337704   1.0066137       0.993      -0.204
   1.0048453  -0.0397580   0.0346432   1.0070047       1.032      -0.155
   1.0044703  -0.0393116   0.0345206   1.0066147       1.068      -0.022
   1.0052526  -0.0392105   0.0346712   1.0073907       1.234      -0.135
   1.0052288  -0.0397330   0.0354554   1.0073599       1.158      -0.202
   1.0050803  -0.0399404   0.0359280   1.0072024       1.286      -0.181
   1.0054518  -0.0391238   0.0353793   1.0075622       1.445      -0.128
   1.0062691  -0.0392998   0.0358360   1.0083733       1.496      -0.118
   1.0079957  -0.0395383   0.0362817   1.0079255       1.355      -0.237
   1.0085657  -0.0395368   0.0365789   1.0084840       1.394      -0.189
   1.0069851  -0.0403178   0.0376763   1.0068946       1.514       0.016
   1.0076545  -0.0400191   0.0377009   1.0075506       1.347      -0.134
   1.0099542  -0.0383505   0.0361846   1.0098399       1.511       0.170
   1.0080851  -0.0393268   0.0373256   1.0079677       1.674       0.057
   1.0117505  -0.0383593   0.0364387   1.0092796       1.556       0.408
   1.0107359  -0.0399121   0.0381672   1.0082660       1.413       0.342
   1.0110486  -0.0403885   0.0388276   1.0085706       1.132       0.401
   1.0111250  -0.0404653   0.0391011   1.0086389       1.313       0.400
   1.0113826  -0.0402331   0.0390805   1.0088866       1.287       0.462
   1.0137374  -0.0396859   0.0387013   1.0097806       1.185       0.596
   1.0145452  -0.0398505   0.0391056   1.0105729       1.061       0.933
   1.0137736  -0.0439151   0.0434145   1.0097978       0.537       0.774
   1.0147866  -0.0447085   0.0444880   1.0107905       0.220       0.860
