     4     2   429   338   346   302     0     1.00000   1
   0.19   0.15   0.10   0.06   0.05   0.05   0.04   0.03   0.02  -0.02
  -0.06  -0.10  -0.14  -0.18  -0.19  -0.20  -0.22  -0.23  -0.24  -0.26
  -0.24  -0.22  -0.21  -0.19  -0.18  -0.16  -0.17  -0.17  -0.18  -0.19
  -0.19  -0.20  -0.21  -0.16  -0.12  -0.08  -0.03   0.01   0.06   0.10
   0.11   0.12   0.13   0.14   0.15   0.16   0.17   0.18   0.14   0.09
   0.04   0.00  -0.05  -0.09  -0.14  -0.13  -0.11  -0.10  -0.09  -0.07
  -0.06  -0.07  -0.08  -0.09  -0.10  -0.11  -0.12  -0.11  -0.11  -0.11
  -0.10  -0.10  -0.09  -0.09  -0.08  -0.08  -0.07  -0.05  -0.03  -0.01
   0.01
   -0.007515    0.008320   -0.007414    0.007089   -0.007297    0.005994
   -0.006858    0.005018   -0.006743    0.004148   -0.006625    0.003363
   -0.006497    0.002650   -0.003427    0.002005   -0.003352    0.001424
   -0.003273    0.000899   -0.003190    0.000426   -0.003105    0.000000
   -0.000140    0.000070   -0.000136    0.000132   -0.000132    0.000188
   -0.000127    0.000237   -0.000123    0.000279   -0.000118    0.000316
   -0.000249    0.000348    0.000000    0.000375    0.000000    0.000397
    0.000000    0.000415    0.000000    0.000428    0.000000    0.000438
    0.000000    0.000530    0.000000    0.000606   -0.000309    0.000665
   -0.000287    0.000707   -0.000264    0.000733   -0.000242    0.000747
   -0.000219    0.000742   -0.000196    0.000725   -0.000174    0.000696
   -0.000153    0.000660   -0.000225    0.000605   -0.000547    0.000526
   -0.000443    0.000440   -0.000338    0.000347   -0.000228    0.000243
   -0.000122    0.000133   -0.000010    0.000011    0.000099   -0.000116
    0.000211   -0.000254    0.000314   -0.000401    0.000577   -0.000550
    0.000713   -0.000702    0.000857   -0.000868    0.000995   -0.001146
    0.001142   -0.001475    0.001292   -0.001854    0.001447   -0.002290
    0.001596   -0.002765    0.001908   -0.003286    0.001915   -0.003547
    0.002073   -0.004145    0.002225   -0.004785    0.002370   -0.005461
    0.002519   -0.006210    0.002667   -0.006812    0.002812   -0.007434
    0.002753   -0.008102    0.002884   -0.008800    0.003008   -0.009513
    0.003136   -0.010305    0.003257   -0.011116    0.003376   -0.011970
    0.003499   -0.012897    0.001112   -0.013869    0.001144   -0.014868
    0.001176   -0.015983    0.001207   -0.017091    0.001238   -0.018282
    0.000056   -0.019537    0.000054   -0.020868    0.000052   -0.022291
    0.000049   -0.023926    0.000045   -0.025600    0.000916   -0.027462
    0.000929   -0.029378    0.000941   -0.031539    0.000953   -0.033767
   1.0032414   0.0098150  -0.0170517   0.9999756       1.211      -4.708
   1.0030519   0.0097096  -0.0159864   0.9997600       1.676      -4.835
   1.0028553   0.0096042  -0.0150150   0.9995441       1.939      -4.797
   1.0028300   0.0095042  -0.0141189   0.9993283       2.297      -4.747
   1.0026311   0.0093989  -0.0133007   0.9991124       2.394      -4.650
   1.0024315   0.0092936  -0.0125371   0.9988961       2.409      -4.688
   1.0022305   0.0091884  -0.0118188   0.9986800       2.508      -4.599
   1.0008031   0.0090815  -0.0110772   0.9986700       1.866      -4.399
   1.0008024   0.0089524  -0.0104186   0.9986589       1.845      -4.256
   1.0008012   0.0088234  -0.0097921   0.9986482       2.220      -4.179
   1.0007988   0.0086943  -0.0091949   0.9986384       2.389      -4.105
   1.0007963   0.0085652  -0.0086235   0.9986271       2.824      -4.149
   0.9983717   0.0084519  -0.0085757   0.9986192       1.807      -3.934
   0.9983626   0.0082301  -0.0084665   0.9986108       2.013      -4.040
   0.9984106   0.0080088  -0.0083526   0.9986594       2.032      -4.065
   0.9984581   0.0077874  -0.0082344   0.9987079       2.071      -4.036
   0.9985064   0.0075661  -0.0081118   0.9987568       2.116      -3.929
   0.9985543   0.0073447  -0.0079862   0.9988052       2.168      -4.038
   0.9988509   0.0071233  -0.0078593   0.9988545       2.141      -3.980
   0.9988993   0.0068917  -0.0077114   0.9989038       2.050      -3.866
   0.9989476   0.0066568  -0.0075643   0.9989524       1.997      -3.718
   0.9989643   0.0064217  -0.0074150   0.9989694       1.833      -3.722
   0.9989806   0.0061866  -0.0072643   0.9989860       1.536      -3.678
   0.9989976   0.0059515  -0.0071122   0.9990031       1.435      -3.713
   0.9990128   0.0057164  -0.0070757   0.9990206       1.346      -3.770
   0.9990281   0.0054503  -0.0070045   0.9990382       1.200      -3.902
   1.0001870   0.0051856  -0.0069359   0.9990553       1.792      -3.867
   1.0002025   0.0049193  -0.0068582   0.9990726       1.721      -3.910
   1.0002862   0.0046534  -0.0067788   0.9991575       1.720      -3.934
   1.0003697   0.0043874  -0.0066984   0.9992422       1.692      -3.957
   1.0004532   0.0041214  -0.0066160   0.9993271       1.593      -3.839
   1.0005370   0.0038553  -0.0065334   0.9994121       1.559      -3.819
   1.0006208   0.0035158  -0.0063774   0.9994967       1.421      -3.668
   1.0007046   0.0031762  -0.0062224   0.9995816       1.305      -3.491
   1.0012215   0.0028360  -0.0060696   0.9994799       1.358      -3.405
   1.0011197   0.0024889  -0.0058772   0.9993764       1.427      -3.641
   1.0010178   0.0021499  -0.0056691   0.9992741       1.167      -3.458
   1.0009165   0.0018109  -0.0054624   0.9991719       1.052      -3.225
   1.0008129   0.0017950  -0.0055823   0.9990689       0.963      -3.300
   1.0007095   0.0017790  -0.0057044   0.9989660       0.887      -3.334
   1.0006061   0.0017631  -0.0058286   0.9988625       0.812      -3.394
   1.0006189   0.0017474  -0.0059562   0.9988787       0.520      -3.429
   1.0006331   0.0017317  -0.0060869   0.9988931       0.720      -3.592
   1.0005239   0.0017160  -0.0062201   0.9989077       0.664      -3.563
   1.0005373   0.0017040  -0.0063738   0.9989212       0.870      -3.766
   1.0005507   0.0016946  -0.0065207   0.9989359       0.875      -3.798
   1.0005649   0.0016853  -0.0066722   0.9989501       0.958      -3.895
   1.0005741   0.0016760  -0.0071358   0.9989651       1.009      -4.095
   1.0005559   0.0016666  -0.0076088   0.9989533       0.923      -4.364
   1.0005370   0.0016572  -0.0080924   0.9989414       0.813      -4.612
   1.0005231   0.0011490  -0.0080855   0.9989292       0.656      -4.626
   1.0005095   0.0006408  -0.0080896   0.9989161       0.476      -4.671
   1.0005401   0.0001325  -0.0081118   0.9989017       0.229      -4.574
   1.0005264  -0.0003754  -0.0080727   0.9988882      -0.038      -4.596
   1.0005131  -0.0008833  -0.0081117   0.9988736      -0.456      -4.603
   1.0003874  -0.0013911  -0.0081633   0.9987447      -0.662      -4.608
   1.0002621  -0.0018987  -0.0082286   0.9986148      -0.792      -4.654
   1.0001329  -0.0021085  -0.0086193   0.9984865      -0.787      -4.834
   1.0000086  -0.0023183  -0.0086180   0.9983585      -0.953      -4.804
   0.9998842  -0.0025281  -0.0086258   0.9982291      -0.892      -4.755
   1.0000291  -0.0027397  -0.0086476   0.9981014      -0.887      -4.478
   1.0002300  -0.0029504  -0.0086898   0.9982975      -0.819      -4.429
   1.0004313  -0.0031613  -0.0087403   0.9984939      -0.795      -4.539
   1.0006322  -0.0033087  -0.0088847   0.9986917      -0.813      -4.401
   1.0008329  -0.0034563  -0.0090396   0.9988889      -0.830      -4.293
   1.0010345  -0.0036039  -0.0092126   0.9990858      -0.713      -4.221
   1.0012379  -0.0037515  -0.0094160   0.9992823      -0.858      -4.549
   1.0002533  -0.0039102  -0.0095992   0.9994802      -1.454      -4.229
   1.0001783  -0.0040573  -0.0098303   0.9993980      -1.437      -4.421
   1.0001062  -0.0043361  -0.0099770   0.9993141      -1.638      -4.336
   1.0000352  -0.0046149  -0.0101354   0.9992296      -1.870      -4.287
   0.9999645  -0.0048937  -0.0103311   0.9991444      -1.926      -4.298
   0.9996535  -0.0051798  -0.0105394   0.9990595      -2.121      -4.085
   0.9995839  -0.0054589  -0.0107998   0.9989725      -2.042      -4.118
   0.9995154  -0.0057379  -0.0111023   0.9988849      -1.917      -4.209
   0.9992998  -0.0056591  -0.0118558   0.9986644      -2.039      -4.328
   0.9990842  -0.0055803  -0.0126295   0.9984428      -2.082      -4.629
   0.9987719  -0.0054950  -0.0134999   0.9982210      -2.018      -4.841
   0.9985567  -0.0054164  -0.0143819   0.9979988      -1.829      -4.923
   0.9983432  -0.0053378  -0.0153761   0.9977770      -1.568      -4.901
   0.9981275  -0.0052593  -0.0164006   0.9975523      -1.583      -5.297
  -0.05  -0.09  -0.13  -0.17  -0.16  -0.16  -0.15  -0.15  -0.14  -0.13
  -0.12  -0.11  -0.10  -0.09  -0.09  -0.08  -0.08  -0.07  -0.06  -0.06
  -0.09  -0.11  -0.14  -0.17  -0.20  -0.23  -0.24  -0.24  -0.25  -0.26
  -0.27  -0.28  -0.29  -0.27  -0.25  -0.23  -0.21  -0.19  -0.17  -0.15
  -0.15  -0.15  -0.15  -0.15  -0.15  -0.15  -0.15  -0.15  -0.11  -0.08
  -0.05  -0.01   0.02   0.06   0.09   0.07   0.05   0.02   0.00  -0.02
  -0.04  -0.05  -0.05  -0.05  -0.05  -0.06  -0.06  -0.02   0.03   0.07
   0.12   0.16   0.21   0.21   0.21   0.22   0.22   0.19   0.17   0.14
   0.11
   -0.003908    0.006711   -0.003856    0.005721   -0.003794    0.004839
   -0.001577    0.004052   -0.001551    0.003352   -0.001524    0.002720
   -0.001495    0.002144   -0.001041    0.001623   -0.001018    0.001153
   -0.000995    0.000729   -0.000970    0.000346   -0.000945    0.000000
   -0.000451    0.000106   -0.000438    0.000200   -0.000424    0.000284
   -0.000411    0.000359   -0.000396    0.000424   -0.000382    0.000481
   -0.000250    0.000529    0.000000    0.000571    0.000000    0.000604
    0.000000    0.000629    0.000000    0.000649    0.000000    0.000662
    0.000000    0.000610    0.000000    0.000560    0.000271    0.000512
    0.000251    0.000465    0.000232    0.000420    0.000212    0.000378
    0.000192    0.000336    0.000172    0.000296    0.000152    0.000258
    0.000134    0.000223   -0.000090    0.000187   -0.000426    0.000119
   -0.000342    0.000066   -0.000257    0.000027   -0.000169    0.000003
   -0.000082   -0.000006    0.000008    0.000001    0.000095    0.000023
    0.000184    0.000060    0.000306    0.000113    0.000568    0.000180
    0.000697    0.000260    0.000833    0.000357    0.000964    0.000327
    0.001095    0.000272    0.001230    0.000194    0.001371    0.000090
    0.001505   -0.000042    0.001836   -0.000201    0.001837   -0.000356
    0.001985   -0.000556    0.002139   -0.000789    0.002286   -0.001049
    0.002437   -0.001345    0.002586   -0.001610    0.002732   -0.001898
    0.002607   -0.002216    0.002732   -0.002557    0.002851   -0.002919
    0.002974   -0.003323    0.003090   -0.003752    0.003205   -0.004212
    0.003324   -0.004717    0.001418   -0.005251    0.001461   -0.005814
    0.001504   -0.006439    0.001547   -0.006958    0.001589   -0.007517
   -0.000902   -0.008110   -0.000926   -0.008753   -0.000950   -0.009445
   -0.000974   -0.010236   -0.000996   -0.011054   -0.001676   -0.011983
   -0.001710   -0.012952   -0.001743   -0.014045   -0.001775   -0.015185
   0.9992246   0.0024202  -0.0076886   1.0000031       0.207      -1.123
   0.9990065   0.0027359  -0.0073020   0.9997839       0.443      -1.114
   0.9987900   0.0030516  -0.0069837   0.9995644       0.650      -1.111
   0.9965343   0.0033689  -0.0067066   0.9993439       0.611      -0.967
   0.9963156   0.0036844  -0.0065015   0.9991233       0.561      -0.926
   0.9960948   0.0039998  -0.0063353   0.9989016       0.528      -0.984
   0.9958741   0.0043150  -0.0062016   0.9986795       0.611      -0.930
   0.9978521   0.0043323  -0.0057857   0.9988052       0.756      -0.812
   0.9979793   0.0043391  -0.0054004   0.9989297       0.805      -0.625
   0.9981066   0.0043459  -0.0050390   0.9990544       0.931      -0.642
   0.9982349   0.0043528  -0.0046982   0.9991798       0.933      -0.684
   0.9983609   0.0043596  -0.0043756   0.9993046       1.099      -0.844
   0.9996434   0.0043745  -0.0045507   0.9994311       1.270      -0.717
   0.9997687   0.0044146  -0.0047542   0.9995570       1.142      -0.743
   0.9998885   0.0044547  -0.0049503   0.9996773       1.097      -0.836
   1.0000082   0.0044948  -0.0051403   0.9997978       1.149      -0.862
   1.0001283   0.0045349  -0.0053241   0.9999183       1.212      -0.811
   1.0002484   0.0045750  -0.0055035   1.0000389       1.250      -0.876
   1.0001551   0.0046151  -0.0056770   1.0001595       1.235      -0.844
   1.0002763   0.0044539  -0.0056425   1.0002812       1.025      -0.662
   1.0003978   0.0042906  -0.0056059   1.0004028       1.153      -0.752
   1.0003314   0.0041264  -0.0055653   1.0003369       1.114      -0.769
   1.0002645   0.0039623  -0.0055227   1.0002704       0.927      -0.792
   1.0001978   0.0037981  -0.0054780   1.0002040       0.929      -0.918
   1.0001318   0.0036340  -0.0051911   1.0001380       0.855      -0.943
   1.0000646   0.0037216  -0.0051600   1.0000712       0.815      -0.923
   0.9995150   0.0038103  -0.0051290   1.0000039       0.886      -0.981
   0.9994475   0.0038979  -0.0051049   0.9999370       0.841      -0.967
   0.9994233   0.0039857  -0.0050841   0.9999134       0.906      -0.939
   0.9993992   0.0040735  -0.0050665   0.9998897       0.936      -1.016
   0.9993750   0.0041612  -0.0050508   0.9998658       0.937      -0.929
   0.9993511   0.0042490  -0.0050375   0.9998423       1.049      -1.088
   0.9993269   0.0043306  -0.0050201   0.9998184       1.039      -0.915
   0.9993033   0.0044122  -0.0050044   0.9997948       1.082      -0.890
   1.0006312   0.0044938  -0.0049965   0.9997649       1.301      -0.873
   1.0006021   0.0045626  -0.0047849   0.9997341       1.249      -0.970
   1.0005729   0.0046439  -0.0045613   0.9997038       1.187      -0.793
   1.0005444   0.0047252  -0.0043392   0.9996737       1.295      -0.700
   1.0005146   0.0049603  -0.0042725   0.9996427       1.269      -0.729
   1.0004849   0.0051953  -0.0042062   0.9996116       1.318      -0.781
   1.0004554   0.0054303  -0.0041396   0.9995804       1.195      -0.780
   1.0005499   0.0056660  -0.0040725   0.9996749       1.238      -0.604
   1.0006454   0.0059017  -0.0040039   0.9997687       1.330      -0.592
   1.0011340   0.0061375  -0.0039345   0.9998627       1.333      -0.461
   1.0012292   0.0062772  -0.0037804   0.9999571       1.456      -0.749
   1.0013245   0.0064268  -0.0036171   1.0000515       1.490      -0.662
   1.0014209   0.0065763  -0.0034494   1.0001459       1.579      -0.688
   1.0015135   0.0067259  -0.0037688   1.0002425       1.658      -0.770
   1.0014092   0.0068741  -0.0040869   1.0001421       1.632      -0.723
   1.0013044   0.0070223  -0.0044043   1.0000416       1.706      -0.805
   1.0012017   0.0068325  -0.0043797   0.9999431       1.634      -0.941
   1.0010993   0.0066427  -0.0043562   0.9998441       1.682      -0.922
   1.0011520   0.0064497  -0.0043365   0.9997449       1.632      -0.882
   1.0010489   0.0062601  -0.0043321   0.9996458       1.497      -0.935
   1.0009459   0.0060705  -0.0043119   0.9995465       1.445      -0.964
   1.0009505   0.0058816  -0.0042945   0.9995545       1.254      -0.955
   1.0009557   0.0056926  -0.0042802   0.9995629       1.226      -1.000
   1.0009587   0.0056502  -0.0044163   0.9995707       1.259      -0.928
   1.0009626   0.0056077  -0.0044709   0.9995782       1.112      -0.948
   1.0009668   0.0055652  -0.0045278   0.9995855       1.089      -0.824
   1.0010989   0.0055265  -0.0045838   0.9995936       1.099      -0.612
   1.0012119   0.0054846  -0.0046450   0.9997103       1.064      -0.568
   1.0013250   0.0054426  -0.0047092   0.9998274       1.082      -0.744
   1.0014378   0.0053318  -0.0047060   0.9999446       1.046      -0.661
   1.0015508   0.0052210  -0.0047067   1.0000614       1.202      -0.560
   1.0016642   0.0051101  -0.0047111   1.0001786       1.232      -0.615
   1.0017792   0.0049992  -0.0047195   1.0002964       1.037      -0.644
   1.0014772   0.0049021  -0.0047119   1.0004131       1.015      -0.315
   1.0011849   0.0047889  -0.0047215   1.0001230       1.068      -0.447
   1.0008894   0.0047468  -0.0048065   0.9998333       1.021      -0.444
   1.0005962   0.0047046  -0.0047479   0.9995429       1.081      -0.437
   1.0003028   0.0046626  -0.0046873   0.9992524       1.114      -0.490
   0.9979255   0.0046271  -0.0046080   0.9989626       1.173      -0.538
   0.9976280   0.0045850  -0.0045516   0.9986709       1.114      -0.613
   0.9973302   0.0045429  -0.0044940   0.9983792       1.115      -0.765
   0.9974105   0.0048805  -0.0048136   0.9984751       1.290      -0.696
   0.9974886   0.0052182  -0.0051318   0.9985702       1.462      -0.674
   0.9955783   0.0055493  -0.0054545   0.9986667       1.196      -0.738
   0.9956533   0.0058867  -0.0057822   0.9987634       1.354      -0.649
   0.9957293   0.0062242  -0.0061102   0.9988627       1.387      -0.491
   0.9957988   0.0065617  -0.0064395   0.9989609       0.932      -0.779
  -0.24  -0.21  -0.17  -0.13  -0.15  -0.17  -0.19  -0.20  -0.22  -0.21
  -0.20  -0.19  -0.19  -0.18  -0.19  -0.21  -0.22  -0.24  -0.26  -0.27
  -0.31  -0.34  -0.38  -0.42  -0.45  -0.49  -0.48  -0.48  -0.47  -0.47
  -0.46  -0.45  -0.45  -0.42  -0.39  -0.35  -0.32  -0.29  -0.26  -0.23
  -0.21  -0.20  -0.18  -0.16  -0.15  -0.13  -0.11  -0.10  -0.06  -0.02
   0.02   0.06   0.10   0.13   0.17   0.15   0.13   0.11   0.09   0.07
   0.04   0.04   0.04   0.03   0.03   0.03   0.02   0.02   0.03   0.03
   0.03   0.03   0.04   0.05   0.06   0.06   0.07   0.05   0.03   0.00
  -0.02
   -0.005154    0.002279   -0.005086    0.001949   -0.005006    0.001654
   -0.005899    0.001389   -0.005796    0.001148   -0.005690    0.000930
   -0.005577    0.000733   -0.003299    0.000554   -0.003226    0.000394
   -0.003152    0.000249   -0.003075    0.000118   -0.002995    0.000000
   -0.001295    0.000064   -0.001259    0.000122   -0.001218    0.000173
   -0.001178    0.000219   -0.001135    0.000258   -0.001093    0.000292
   -0.000248    0.000322    0.000000    0.000347    0.000000    0.000366
    0.000000    0.000381    0.000000    0.000393    0.000000    0.000401
    0.000000    0.000364    0.000000    0.000328   -0.000243    0.000296
   -0.000225    0.000265   -0.000208    0.000235   -0.000190    0.000208
   -0.000172    0.000181   -0.000154    0.000157   -0.000137    0.000134
   -0.000120    0.000113   -0.000339    0.000093   -0.000627    0.000077
   -0.000501    0.000061   -0.000375    0.000045   -0.000244    0.000029
   -0.000116    0.000014    0.000017   -0.000002    0.000146   -0.000017
    0.000279   -0.000032    0.000421   -0.000048    0.000717   -0.000062
    0.000878   -0.000075    0.001047   -0.000089    0.001211   -0.000143
    0.001376   -0.000208    0.001545   -0.000286    0.001721   -0.000378
    0.001890   -0.000480    0.002276   -0.000596    0.002277   -0.000665
    0.002460   -0.000800    0.002652   -0.000952    0.002834   -0.001116
    0.003022   -0.001299    0.003208   -0.001618    0.003388   -0.001968
    0.003064   -0.002357    0.003213   -0.002776    0.003354   -0.003225
    0.003500   -0.003726    0.003638   -0.004261    0.003773   -0.004838
    0.003914   -0.005472    0.002211   -0.006154    0.002280   -0.006875
    0.002349   -0.007679    0.002417   -0.008313    0.002484   -0.008998
    0.001402   -0.009726    0.001436   -0.010500    0.001469   -0.011332
    0.001502   -0.012283    0.001532   -0.013267    0.004119   -0.014386
    0.004196   -0.015552    0.004271   -0.016868    0.004344   -0.018241
   1.0006865   0.0011154  -0.0012847   1.0000021      -0.707       0.001
   1.0007631   0.0012168  -0.0013700   1.0000778      -0.556       0.061
   1.0008388   0.0013183  -0.0014560   1.0001533      -0.426       0.048
   1.0026542   0.0014206  -0.0015445   1.0002289      -0.576       0.175
   1.0027318   0.0015222  -0.0016301   1.0003046      -0.638       0.163
   1.0028104   0.0016238  -0.0017171   1.0003803      -0.748       0.279
   1.0028884   0.0017254  -0.0018053   1.0004563      -0.690       0.254
   1.0023108   0.0017579  -0.0018152   1.0002991      -0.523       0.348
   1.0021557   0.0017862  -0.0018311   1.0001419      -0.401       0.325
   1.0020003   0.0018145  -0.0018481   0.9999844      -0.296       0.264
   1.0018440   0.0018427  -0.0018655   0.9998272      -0.236       0.296
   1.0016893   0.0018710  -0.0018835   0.9996692      -0.342       0.175
   1.0009799   0.0019028  -0.0020180   0.9995122      -0.030       0.223
   1.0008231   0.0017352  -0.0019556   0.9993551      -0.080       0.167
   1.0011399   0.0015683  -0.0018891   0.9996712      -0.212       0.144
   1.0014567   0.0014013  -0.0018186   0.9999878      -0.217       0.236
   1.0017738   0.0012343  -0.0017440   1.0003046      -0.264       0.210
   1.0020914   0.0010671  -0.0016665   1.0006216      -0.434       0.125
   1.0009375   0.0008998  -0.0015835   1.0009385      -0.272       0.223
   1.0012547   0.0007749  -0.0015424   1.0012553      -0.324       0.450
   1.0015723   0.0006495  -0.0014990   1.0015727      -0.390       0.259
   1.0015492   0.0005239  -0.0014533   1.0015497      -0.405       0.346
   1.0015253   0.0003982  -0.0014063   1.0015258      -0.435       0.319
   1.0015014   0.0002726  -0.0013579   1.0015019      -0.451       0.233
   1.0014780   0.0001470  -0.0011095   1.0014786      -0.676       0.286
   1.0014545   0.0001508  -0.0009943   1.0014549      -0.828       0.342
   1.0024000   0.0001548  -0.0008832   1.0014311      -0.937       0.331
   1.0023766   0.0001586  -0.0007742   1.0014076      -0.868       0.306
   1.0022159   0.0001625  -0.0006678   1.0012466      -0.956       0.332
   1.0020548   0.0001663  -0.0005638   1.0010854      -0.887       0.292
   1.0018933   0.0001701  -0.0004617   1.0009242      -0.904       0.188
   1.0017321   0.0001740  -0.0003614   1.0007628      -0.814       0.132
   1.0015705   0.0003617  -0.0004464   1.0006013      -0.667       0.278
   1.0014082   0.0005492  -0.0005327   1.0004400      -0.502       0.191
   1.0031796   0.0007370  -0.0006210   1.0005966      -0.657       0.267
   1.0033344   0.0009223  -0.0007979   1.0007551      -0.680       0.089
   1.0034894   0.0011096  -0.0009731   1.0009117      -0.629       0.287
   1.0036455   0.0012970  -0.0011483   1.0010688      -0.527       0.358
   1.0038023   0.0012345  -0.0010715   1.0012256      -0.468       0.374
   1.0039591   0.0011720  -0.0009947   1.0013828      -0.515       0.331
   1.0041175   0.0011094  -0.0009177   1.0015403      -0.511       0.433
   1.0041412   0.0010467  -0.0008404   1.0015674      -0.549       0.672
   1.0041722   0.0009840  -0.0007629   1.0015972      -0.607       0.619
   1.0043163   0.0009213  -0.0006853   1.0016263      -0.668       0.676
   1.0043435   0.0009344  -0.0006864   1.0016572      -0.606       0.448
   1.0043716   0.0009489  -0.0006862   1.0016861      -0.511       0.460
   1.0044036   0.0009635  -0.0006857   1.0017161      -0.545       0.473
   1.0044334   0.0009780  -0.0006073   1.0017458      -0.544       0.388
   1.0043201   0.0009924  -0.0005275   1.0016326      -0.386       0.370
   1.0042075   0.0010068  -0.0004463   1.0015196      -0.531       0.517
   1.0040945   0.0011193  -0.0004624   1.0014064      -0.432       0.483
   1.0039822   0.0012317  -0.0004765   1.0012937      -0.499       0.436
   1.0040975   0.0013434  -0.0004888   1.0011811      -0.495       0.419
   1.0039828   0.0014557  -0.0005067   1.0010678      -0.587       0.357
   1.0038691   0.0015679  -0.0005150   1.0009546      -0.602       0.434
   1.0040278   0.0016806  -0.0005215   1.0011138      -0.578       0.385
   1.0041876   0.0017933  -0.0005255   1.0012736      -0.601       0.396
   1.0043465   0.0017884  -0.0004066   1.0014327      -0.606       0.318
   1.0045031   0.0017834  -0.0006343   1.0015916      -0.703       0.365
   1.0046626   0.0017784  -0.0008679   1.0017518      -0.716       0.390
   1.0044470   0.0017747  -0.0011060   1.0019097      -0.561       0.566
   1.0043579   0.0017693  -0.0013510   1.0018208      -0.551       0.557
   1.0042677   0.0017639  -0.0016035   1.0017316      -0.561       0.552
   1.0041765   0.0016236  -0.0017275   1.0016409      -0.435       0.465
   1.0040853   0.0014834  -0.0018608   1.0015498      -0.333       0.599
   1.0039949   0.0013432  -0.0020040   1.0014592      -0.411       0.463
   1.0039080   0.0012030  -0.0021590   1.0013697      -0.501       0.635
   1.0036826   0.0010658  -0.0023191   1.0012764      -0.443       0.722
   1.0035988   0.0009253  -0.0024981   1.0011905      -0.487       0.670
   1.0035089   0.0009275  -0.0028383   1.0011045      -0.397       0.624
   1.0034233   0.0009298  -0.0029336   1.0010189      -0.303       0.684
   1.0033382   0.0009320  -0.0030355   1.0009335      -0.270       0.661
   1.0030910   0.0009355  -0.0031383   1.0008467      -0.102       0.617
   1.0030065   0.0009378  -0.0032507   1.0007616      -0.166       0.659
   1.0029216   0.0009400  -0.0033706   1.0006764      -0.171       0.499
   1.0029964   0.0009941  -0.0035582   1.0007558      -0.112       0.482
   1.0030740   0.0010483  -0.0037507   1.0008363      -0.286       0.573
   1.0051588   0.0011011  -0.0039854   1.0009168      -0.511       0.674
   1.0052359   0.0011552  -0.0042178   1.0009972      -0.403       0.646
   1.0053109   0.0012093  -0.0044739   1.0010781      -0.394       0.552
   1.0053917   0.0012635  -0.0047423   1.0011600      -0.517       0.674
  -0.21  -0.23  -0.25  -0.27  -0.28  -0.28  -0.29  -0.29  -0.30  -0.31
  -0.32  -0.33  -0.34  -0.35  -0.34  -0.33  -0.32  -0.31  -0.30  -0.29
  -0.28  -0.26  -0.24  -0.23  -0.21  -0.20  -0.26  -0.32  -0.38  -0.43
  -0.49  -0.55  -0.61  -0.58  -0.54  -0.50  -0.47  -0.43  -0.39  -0.36
  -0.34  -0.32  -0.31  -0.29  -0.27  -0.26  -0.24  -0.22  -0.23  -0.24
  -0.25  -0.26  -0.26  -0.27  -0.28  -0.27  -0.26  -0.24  -0.23  -0.22
  -0.20  -0.17  -0.14  -0.11  -0.07  -0.04  -0.01  -0.01  -0.01  -0.01
  -0.01   0.00   0.00  -0.01  -0.02  -0.03  -0.04  -0.01   0.01   0.04
   0.07
   -0.007696   -0.003000   -0.007588   -0.002559   -0.007465   -0.002167
   -0.005843   -0.001816   -0.005741   -0.001502   -0.005637   -0.001218
   -0.005524   -0.000960   -0.001840   -0.000727   -0.001798   -0.000516
   -0.001756   -0.000326   -0.001712   -0.000155   -0.001666    0.000000
   -0.000263   -0.000132   -0.000255   -0.000251   -0.000247   -0.000357
   -0.000239   -0.000450   -0.000230   -0.000532   -0.000222   -0.000603
   -0.000248   -0.000664    0.000000   -0.000717    0.000000   -0.000758
    0.000001   -0.000792    0.000001   -0.000817    0.000001   -0.000835
    0.000001   -0.000759    0.000001   -0.000687   -0.000714   -0.000616
   -0.000660   -0.000548   -0.000606   -0.000484   -0.000554   -0.000426
   -0.000498   -0.000369   -0.000444   -0.000316   -0.000391   -0.000268
   -0.000342   -0.000226   -0.000540   -0.000185   -0.000785   -0.000140
   -0.000625   -0.000100   -0.000465   -0.000066   -0.000297   -0.000037
   -0.000133   -0.000014    0.000037    0.000003    0.000201    0.000015
    0.000371    0.000021    0.000614    0.000022    0.000967    0.000016
    0.001179    0.000005    0.001403   -0.000012    0.001619   -0.000063
    0.001844   -0.000128    0.002075   -0.000209    0.002315   -0.000307
    0.002545   -0.000419    0.003273   -0.000547    0.003283   -0.000637
    0.003550   -0.000790    0.003812   -0.000960    0.004062   -0.001145
    0.004319   -0.001352    0.004574   -0.001434    0.004821   -0.001514
    0.003802   -0.001597    0.003983   -0.001676    0.004153   -0.001752
    0.004331   -0.001835    0.004499   -0.001916    0.004665   -0.001997
    0.004837   -0.002083    0.004206   -0.002172    0.004341   -0.002259
    0.004478   -0.002356    0.004609   -0.002579    0.004740   -0.002820
    0.002238   -0.003077    0.002295   -0.003354    0.002351   -0.003653
    0.002406   -0.003995    0.002459   -0.004350    0.003480   -0.004743
    0.003544   -0.005153    0.003608   -0.005614    0.003669   -0.006097
   1.0036236  -0.0010555   0.0070148   0.9999969      -2.874      -1.898
   1.0037675  -0.0012881   0.0064606   1.0001348      -3.493      -1.820
   1.0039066  -0.0015208   0.0059806   1.0002729      -3.805      -1.683
   1.0027846  -0.0017546   0.0055547   1.0004112      -3.583      -1.677
   1.0029243  -0.0019875   0.0051943   1.0005499      -3.602      -1.646
   1.0030652  -0.0022206   0.0048788   1.0006887      -3.691      -1.669
   1.0032060  -0.0024536   0.0046007   1.0008281      -3.923      -1.705
   1.0010384  -0.0023183   0.0039607   1.0009341      -2.755      -1.356
   1.0011452  -0.0021771   0.0033733   1.0010411      -2.865      -1.318
   1.0012521  -0.0020358   0.0028133   1.0011477      -3.077      -1.100
   1.0013583  -0.0018945   0.0022770   1.0012541      -3.239      -0.735
   1.0014657  -0.0017532   0.0017615   1.0013616      -3.602      -0.581
   1.0014029  -0.0016148   0.0017984   1.0014671      -3.379      -0.480
   1.0015082  -0.0018365   0.0021941   1.0015730      -3.467      -0.624
   1.0016321  -0.0020583   0.0025821   1.0016975      -3.449      -0.817
   1.0017562  -0.0022801   0.0029638   1.0018222      -3.336      -0.955
   1.0018798  -0.0025020   0.0033390   1.0019467      -3.320      -1.309
   1.0020039  -0.0027239   0.0037096   1.0020717      -3.449      -1.501
   1.0021902  -0.0029459   0.0040757   1.0021956      -3.466      -1.529
   1.0023160  -0.0027436   0.0040105   1.0023206      -3.219      -1.504
   1.0024416  -0.0025399   0.0039427   1.0024467      -3.070      -1.659
   1.0021737  -0.0023352   0.0038704   1.0021789      -2.783      -1.771
   1.0019041  -0.0021307   0.0037960   1.0019097      -2.411      -1.716
   1.0016351  -0.0019263   0.0037194   1.0016407      -2.211      -1.790
   1.0013669  -0.0017219   0.0035313   1.0013717      -1.877      -1.563
   1.0010984  -0.0015755   0.0034020   1.0011026      -1.617      -1.615
   1.0031189  -0.0014295   0.0032793   1.0008330      -3.041      -1.528
