     2     4   377   446   294   345     0     1.00000   1
   0.03   0.03   0.02   0.02   0.01   0.05   0.09   0.13   0.17   0.15
   0.12   0.09   0.06   0.04   0.01   0.02   0.03   0.04   0.05   0.06
   0.05   0.04   0.04   0.03   0.02   0.01   0.01  -0.02  -0.04  -0.07
  -0.09  -0.12  -0.15  -0.17  -0.14  -0.12  -0.09  -0.06  -0.03   0.00
   0.02   0.00  -0.03  -0.05  -0.08  -0.10  -0.13  -0.15  -0.13  -0.12
  -0.10  -0.08  -0.07  -0.05  -0.02   0.00   0.03   0.06   0.08   0.11
   0.06   0.01  -0.04  -0.09  -0.13  -0.18  -0.10  -0.01   0.08   0.17
   0.25   0.23   0.20   0.17   0.14   0.11   0.15   0.19   0.22
   -0.001404   -0.001907   -0.001377   -0.001557   -0.001354   -0.001255
   -0.001328   -0.000981   -0.001838   -0.000733   -0.001801   -0.000510
   -0.001761   -0.000308   -0.001721   -0.000125   -0.001679    0.000040
   -0.001378    0.000188   -0.001341    0.000321   -0.001300    0.000439
   -0.001260    0.000168   -0.001218   -0.000076   -0.001175   -0.000294
   -0.000792   -0.000488   -0.000761   -0.000660   -0.000731   -0.000812
   -0.000699   -0.000940   -0.000667   -0.001051   -0.000633   -0.001139
   -0.000601   -0.001213    0.000363   -0.001264    0.000341   -0.001219
    0.000319   -0.001166    0.000297   -0.001111    0.000274   -0.001049
    0.000250   -0.000981    0.000228   -0.000915    0.000206   -0.000843
    0.000183   -0.000766    0.000023   -0.000689    0.000020   -0.000603
    0.000017   -0.000515    0.000013   -0.000418    0.000010   -0.000321
    0.000007   -0.000216    0.000003   -0.000111    0.000000    0.000001
   -0.000003    0.000114    0.000097    0.000235    0.000147    0.000364
    0.000198    0.000501    0.000248    0.000640    0.000300    0.000790
    0.000350    0.000941    0.000400    0.001086    0.000448    0.001234
    0.000497    0.001386    0.000245    0.001537    0.000267    0.001699
    0.000287    0.001856    0.000309    0.002027    0.000330    0.002199
    0.000350    0.002378    0.000371    0.002560    0.000391    0.002750
    0.000576    0.002782    0.000576    0.002636    0.000604    0.002645
    0.000632    0.002648    0.000661    0.002639    0.000689    0.002616
    0.000716    0.002566   -0.000263    0.002504   -0.000272    0.002424
   -0.000279    0.002313   -0.000286    0.002183   -0.000294    0.002162
   -0.000301    0.002139   -0.003696    0.002101   -0.003784    0.002067
   -0.003877    0.002028   -0.003965    0.001979   -0.004048    0.001914
   -0.008299    0.001842   -0.008459    0.001752   -0.008608    0.001653
   -0.008760    0.001533
   1.0023624   0.0011973  -0.0008360   1.0005196       0.825       0.299
   1.0022895   0.0010907  -0.0008599   1.0004473       0.708       0.023
   1.0022175   0.0009841  -0.0008719   1.0003749       0.534      -0.064
   1.0021453   0.0008775  -0.0008755   1.0003026       0.535      -0.072
   1.0009247   0.0007694  -0.0008721   1.0002295       0.471       0.093
   1.0008521   0.0006631  -0.0008610   1.0001568       0.479       0.014
   1.0007787   0.0005567  -0.0008446   1.0000837       0.336      -0.028
   1.0007054   0.0005637  -0.0009377   1.0000105       0.352      -0.078
   1.0006487   0.0005708  -0.0010263   0.9999536       0.164      -0.082
   1.0012856   0.0005784  -0.0011106   0.9998969       0.293      -0.213
   1.0012294   0.0005855  -0.0011918   0.9998399       0.307      -0.188
   1.0011721   0.0005925  -0.0012694   0.9997832       0.422      -0.346
   1.0011156   0.0005996  -0.0011913   0.9997260       0.351      -0.289
   1.0010593   0.0004826  -0.0009928   0.9996690       0.296      -0.251
   1.0010027   0.0003656  -0.0007982   0.9996120       0.103      -0.413
   1.0009583   0.0002489  -0.0006065   0.9995607       0.064      -0.187
   1.0009068   0.0001319  -0.0004180   0.9995101       0.036      -0.389
   1.0008558   0.0000149  -0.0002322   0.9994588      -0.046      -0.257
   1.0008044  -0.0001021  -0.0000486   0.9994079      -0.068      -0.299
   1.0007532  -0.0000779  -0.0000084   0.9993567       0.022      -0.332
   1.0007020  -0.0000537   0.0000295   0.9993054       0.079      -0.398
   1.0006508  -0.0000295   0.0000657   0.9992542       0.034      -0.413
   0.9991944  -0.0000052   0.0001001   0.9992936      -0.092      -0.417
   0.9992342   0.0000190   0.0000558   0.9993330      -0.131      -0.524
   0.9992732   0.0000432   0.0000119   0.9993720      -0.077      -0.486
   0.9993129   0.0000761  -0.0000401   0.9994114      -0.036      -0.446
   0.9993528   0.0001090  -0.0000918   0.9994507      -0.087      -0.460
   0.9993923   0.0001419  -0.0001434   0.9994903       0.056      -0.501
   0.9994318   0.0001748  -0.0001947   0.9995294       0.004      -0.269
   0.9994429   0.0002077  -0.0002457   0.9995400      -0.092      -0.427
   0.9994535   0.0002406  -0.0002965   0.9995503       0.044      -0.322
   0.9997766   0.0000352  -0.0001092   0.9995614      -0.009      -0.395
   0.9997863  -0.0001701   0.0000786   0.9995727      -0.126      -0.361
   0.9997959  -0.0003754   0.0002665   0.9995840      -0.259      -0.455
   0.9998059  -0.0005807   0.0003878   0.9995954      -0.305      -0.412
   0.9998158  -0.0007860   0.0005094   0.9996067      -0.390      -0.395
   0.9998305  -0.0009913   0.0006311   0.9996230      -0.428      -0.228
   0.9998465  -0.0009600   0.0005162   0.9996386      -0.421      -0.178
   0.9998626  -0.0009288   0.0004010   0.9996541      -0.434      -0.157
   0.9998788  -0.0008976   0.0002854   0.9996700      -0.692      -0.013
   1.0001898  -0.0008649   0.0001694   0.9996853      -0.457      -0.294
   1.0002059  -0.0008337   0.0000524   0.9997005      -0.479      -0.191
   1.0002220  -0.0008025  -0.0000655   0.9997159      -0.367      -0.207
   1.0002381  -0.0007836  -0.0001720   0.9997317      -0.331      -0.325
   1.0004646  -0.0007649  -0.0002798   0.9999577      -0.185      -0.033
   1.0006912  -0.0007462  -0.0003890   1.0001839      -0.223       0.006
   1.0009173  -0.0007274  -0.0002607   1.0004107      -0.291       0.247
   1.0011432  -0.0007087  -0.0001312   1.0006371      -0.292       0.448
   1.0013682  -0.0006899  -0.0000013   1.0008632      -0.351       0.478
   1.0006359  -0.0006036   0.0000623   1.0010892      -0.421       0.627
   1.0008614  -0.0005172   0.0001278   1.0013152      -0.262       0.780
   1.0006169  -0.0004305   0.0001958   1.0010700      -0.249       0.570
   1.0003729  -0.0003439   0.0002662   1.0008258      -0.086       0.909
   1.0001284  -0.0002573   0.0003399   1.0005808      -0.250       0.552
   0.9998837  -0.0001707   0.0004166   1.0003356      -0.157       0.336
   0.9996389  -0.0001172   0.0005303   1.0000906      -0.157       0.272
   0.9993941  -0.0000637   0.0006486   0.9998457      -0.104       0.075
   0.9988519  -0.0000102   0.0006201   0.9996005      -0.086      -0.154
   0.9990903   0.0000433   0.0005838   0.9998385      -0.021       0.035
   0.9993276   0.0000967   0.0005569   1.0000762       0.034       0.282
   0.9995658   0.0001502   0.0005353   1.0003142       0.021       0.285
   0.9998034   0.0001257   0.0005940   1.0005524       0.007       0.482
   1.0000412   0.0001011   0.0006545   1.0007911      -0.048       0.743
   1.0002792   0.0000765   0.0007158   1.0010302      -0.002       0.833
   1.0010387   0.0000520   0.0007780   1.0012685      -0.074       1.081
   1.0008627   0.0000274   0.0008430   1.0010926      -0.027       0.780
   1.0006847   0.0000027   0.0009025   1.0009146      -0.070       0.751
   1.0005096   0.0002650   0.0006776   1.0007379       0.285       0.413
   1.0003345   0.0005272   0.0004599   1.0005622       0.474       0.563
   1.0001577   0.0007893   0.0002465   1.0003840       0.839       0.255
   0.9976508   0.0010538   0.0000346   1.0002069       0.954       0.436
   0.9974763   0.0013163  -0.0001647   1.0000296       1.005      -0.061
   0.9974259   0.0015789  -0.0003583   0.9999793       0.870      -0.146
   0.9973754   0.0014014  -0.0001100   0.9999301       0.755      -0.069
   0.9973245   0.0012238   0.0001423   0.9998809       0.730      -0.085
   0.9936238   0.0010478   0.0004011   0.9998315       0.460       0.029
   0.9935683   0.0008700   0.0006644   0.9997820       0.315       0.133
   0.9935216   0.0006923   0.0009395   0.9997326       0.236      -0.262
   0.9934645   0.0005145   0.0012224   0.9996826       0.212      -0.230
   0.14   0.16   0.18   0.20   0.22   0.21   0.19   0.18   0.17   0.16
   0.15   0.13   0.12   0.11   0.10   0.06   0.01  -0.04  -0.08  -0.13
  -0.10  -0.08  -0.06  -0.03  -0.01   0.01   0.04   0.04   0.04   0.04
   0.04   0.05   0.05   0.05   0.03   0.01  -0.01  -0.02  -0.04  -0.06
  -0.08  -0.10  -0.12  -0.14  -0.16  -0.18  -0.21  -0.23  -0.18  -0.14
  -0.09  -0.05   0.00   0.04   0.05   0.07   0.08   0.10   0.11   0.12
   0.11   0.09   0.07   0.06   0.04   0.02   0.02   0.01   0.01   0.00
   0.00   0.06   0.12   0.18   0.24   0.30   0.27   0.24   0.21
   -0.003417   -0.003016   -0.003353   -0.002694   -0.003297   -0.002424
   -0.003236   -0.002174   -0.004364   -0.001944   -0.004273   -0.001733
   -0.004175   -0.001538   -0.004077   -0.001363   -0.003974   -0.001199
   -0.001598   -0.001049   -0.001555   -0.000912   -0.001508   -0.000785
   -0.001461   -0.000961   -0.001413   -0.001114   -0.001363   -0.001248
   -0.000822   -0.001362   -0.000789   -0.001457   -0.000756   -0.001536
   -0.000722   -0.001596   -0.000688   -0.001641   -0.000653   -0.001671
   -0.000620   -0.001694    0.000065   -0.001695    0.000061   -0.001643
    0.000058   -0.001578    0.000054   -0.001510    0.000050   -0.001432
    0.000046   -0.001345    0.000042   -0.001261    0.000038   -0.001167
    0.000034   -0.001067   -0.000017   -0.000966   -0.000014   -0.000851
   -0.000012   -0.000734   -0.000009   -0.000575   -0.000007   -0.000425
   -0.000005   -0.000276   -0.000002   -0.000136    0.000000    0.000003
    0.000002    0.000132    0.000056    0.000262    0.000085    0.000387
    0.000114    0.000511    0.000142    0.000627    0.000171    0.000746
    0.000199    0.000856    0.000227    0.000961    0.000255    0.001064
    0.000282    0.001161    0.000062    0.001251    0.000068    0.001345
    0.000073    0.001427    0.000078    0.001515    0.000084    0.001596
    0.000089    0.001678    0.000095    0.001756    0.000100    0.001834
    0.000276    0.001835    0.000276    0.001718    0.000290    0.001699
    0.000303    0.001671    0.000316    0.001632    0.000330    0.001580
    0.000342    0.001509   -0.001036    0.001425   -0.001071    0.001325
   -0.001102    0.001208   -0.001134    0.001074   -0.001168    0.000951
   -0.001198    0.000814   -0.003216    0.000657   -0.003287    0.000482
   -0.003363    0.000287   -0.003435    0.000071   -0.003503   -0.000169
   -0.006734   -0.000436   -0.006870   -0.000734   -0.006997   -0.001071
   -0.007125   -0.001446
   1.0043579   0.0002843   0.0013956   1.0001210       0.546       0.001
   1.0042870   0.0002457   0.0013633   1.0000488       0.123      -0.123
   1.0042174   0.0002071   0.0013468   0.9999766       0.162      -0.120
   1.0041472   0.0001686   0.0013335   0.9999042       0.195      -0.089
   1.0037724   0.0001297   0.0013260   0.9998322       0.192      -0.290
   1.0037024   0.0000912   0.0013196   0.9997596       0.073      -0.329
   1.0036300   0.0000527   0.0013166   0.9996873      -0.033      -0.430
   1.0035577   0.0001875   0.0011441   0.9996148      -0.045      -0.485
   1.0036869   0.0003223   0.0009734   0.9997422      -0.045      -0.347
   1.0015782   0.0004577   0.0008030   0.9998699       0.279      -0.318
   1.0017071   0.0005927   0.0006390   0.9999975       0.391      -0.083
   1.0018348   0.0007278   0.0004766   1.0001253       0.356      -0.076
   1.0019622   0.0008629   0.0003345   1.0002526       0.514       0.069
   1.0020902   0.0007414   0.0004500   1.0003804       0.404       0.107
   1.0022178   0.0006198   0.0005667   1.0005081       0.124       0.263
   1.0016569   0.0004984   0.0006827   1.0002056       0.311       0.081
   1.0013533   0.0003766   0.0007997   0.9999034      -0.036      -0.145
   1.0010508   0.0002548   0.0009179   0.9996011       0.043      -0.406
   1.0007477   0.0001332   0.0010360   0.9992986      -0.208      -0.513
   1.0004454   0.0002814   0.0008851   0.9989957      -0.118      -0.745
   1.0001432   0.0004295   0.0007367   0.9986926       0.046      -0.972
   0.9998409   0.0005776   0.0005902   0.9983894       0.256      -1.079
   0.9991879   0.0007264   0.0004432   0.9985506       0.461      -0.958
   0.9993502   0.0008749   0.0003174   0.9987115       0.465      -0.750
   0.9995123   0.0010234   0.0001914   0.9988720       0.656      -0.666
   0.9996738   0.0009247   0.0003129   0.9990342       0.632      -0.597
   0.9998356   0.0008260   0.0004346   0.9991966       0.468      -0.451
   0.9999971   0.0007272   0.0005563   0.9993591       0.408      -0.515
   1.0001588   0.0006284   0.0006792   0.9995212       0.564      -0.497
   1.0001111   0.0005295   0.0008023   0.9994748       0.268      -0.488
   1.0000634   0.0004305   0.0009260   0.9994282       0.267      -0.478
   0.9998188   0.0002328   0.0011494   0.9993818       0.132      -0.617
   0.9997703   0.0000353   0.0013729   0.9993356      -0.005      -0.610
   0.9997221  -0.0001621   0.0015973   0.9992894      -0.083      -0.693
   0.9996752  -0.0003596   0.0015361   0.9992434      -0.220      -0.643
   0.9996284  -0.0005570   0.0014773   0.9991972      -0.325      -0.683
   0.9998285  -0.0007546   0.0014206   0.9993981      -0.425      -0.585
   1.0000291  -0.0008855   0.0012984   0.9995986      -0.532      -0.442
   1.0002300  -0.0010165   0.0011769   0.9997997      -0.666      -0.394
   1.0004303  -0.0011476   0.0010555   1.0000005      -0.715      -0.052
   0.9998760  -0.0012764   0.0009346   1.0002012      -0.789      -0.066
   1.0000764  -0.0014074   0.0008119   1.0004023      -0.782       0.150
   1.0002770  -0.0015383   0.0006876   1.0006032      -0.957       0.221
   1.0004785  -0.0015386   0.0004303   1.0008039      -1.030       0.323
   1.0004619  -0.0015385   0.0001702   1.0007861      -0.853       0.351
   1.0004454  -0.0015384  -0.0000929   1.0007684      -0.924       0.392
   1.0004275  -0.0015383  -0.0000671   1.0007510      -0.765       0.535
   1.0004092  -0.0015382  -0.0000420   1.0007330      -0.653       0.491
   1.0003910  -0.0015381  -0.0000193   1.0007145      -0.876       0.496
   0.9996004  -0.0013337  -0.0002019   1.0006955      -0.573       0.606
   0.9995831  -0.0011292  -0.0003861   1.0006763      -0.575       0.587
   0.9994812  -0.0009247  -0.0005701   1.0005722      -0.555       0.535
   0.9993787  -0.0007202  -0.0007559   1.0004685       0.037       0.354
   0.9992765  -0.0005157  -0.0009420   1.0003644      -0.225       0.448
   0.9991743  -0.0003113  -0.0011281   1.0002602      -0.190       0.354
   0.9990717  -0.0001444  -0.0012769   1.0001564      -0.067       0.325
   0.9989691   0.0000224  -0.0014265   1.0000526       0.067       0.272
   0.9985804   0.0001890  -0.0015390   0.9999483       0.080       0.212
   0.9987158   0.0003557  -0.0016314   1.0000827       0.234       0.303
   0.9988498   0.0005224  -0.0017418   1.0002176       0.355       0.432
   0.9989849   0.0006892  -0.0018503   1.0003520       0.294       0.546
   0.9991195   0.0007213  -0.0018230   1.0004873       0.357       0.570
   0.9992538   0.0007534  -0.0017944   1.0006230       0.558       0.576
   0.9993879   0.0007856  -0.0017629   1.0007590       0.475       0.605
   0.9994134   0.0008194  -0.0017262   1.0008943       0.474       0.754
   0.9993149   0.0008515  -0.0016910   1.0007970       0.330       0.586
   0.9992176   0.0008835  -0.0016535   1.0006984       0.556       0.706
   0.9991189   0.0009193  -0.0016172   1.0006013       0.578       0.526
   0.9990187   0.0009551  -0.0017174   1.0005046       1.027       0.626
   0.9989223   0.0009909  -0.0018225   1.0004060       0.744       0.409
   0.9984248   0.0010291  -0.0019250   1.0003085       1.304       0.385
   0.9983277   0.0010649  -0.0020391   1.0002104       0.769       0.306
   0.9983302   0.0011009  -0.0021594   1.0002139       0.595       0.477
   0.9983336   0.0008809  -0.0020307   1.0002183       0.260       0.325
   0.9983364   0.0006608  -0.0019064   1.0002223      -0.130       0.257
   0.9958952   0.0004413  -0.0017837   1.0002264      -0.165       0.177
   0.9958953   0.0002210  -0.0016779   1.0002302      -0.140       0.222
   0.9959012   0.0000006  -0.0015856   1.0002337      -0.507       0.300
   0.9959007  -0.0002198  -0.0015034   1.0002373      -0.413       0.359
  -0.13  -0.13  -0.14  -0.14  -0.15  -0.13  -0.12  -0.10  -0.09  -0.08
  -0.08  -0.08  -0.07  -0.07  -0.06   0.01   0.08   0.15   0.22   0.29
   0.24   0.19   0.14   0.09   0.04  -0.01  -0.06  -0.07  -0.08  -0.09
  -0.10  -0.11  -0.12  -0.13  -0.08  -0.03   0.02   0.07   0.13   0.18
   0.23   0.18   0.14   0.10   0.05   0.01  -0.04  -0.08  -0.04  -0.01
   0.03   0.07   0.10   0.14   0.09   0.04  -0.02  -0.07  -0.12  -0.17
  -0.17  -0.17  -0.16  -0.16  -0.16  -0.16  -0.12  -0.08  -0.03   0.01
   0.05   0.02   0.00  -0.03  -0.06  -0.08  -0.06  -0.04  -0.02
    0.003355    0.000649    0.003291    0.000625    0.003234    0.000607
    0.003173    0.000589    0.000840    0.000571    0.000823    0.000555
    0.000804    0.000538    0.000786    0.000523    0.000766    0.000508
   -0.000625    0.000492   -0.000608    0.000477   -0.000590    0.000462
   -0.000571    0.000332   -0.000553    0.000215   -0.000533    0.000108
   -0.000921    0.000013   -0.000886   -0.000073   -0.000853   -0.000150
   -0.000818   -0.000217   -0.000782   -0.000277   -0.000742   -0.000326
   -0.000703   -0.000368    0.000266   -0.000400    0.000250   -0.000525
    0.000233   -0.000626    0.000217   -0.000705    0.000200   -0.000762
    0.000183   -0.000798    0.000167   -0.000821    0.000151   -0.000821
    0.000134   -0.000804    0.000176   -0.000772    0.000151   -0.000716
    0.000127   -0.000645    0.000102   -0.000537    0.000078   -0.000422
    0.000052   -0.000295    0.000028   -0.000162    0.000002   -0.000015
   -0.000022    0.000137    0.000059    0.000305    0.000092    0.000493
    0.000125    0.000697    0.000158    0.000908    0.000192    0.001141
    0.000225    0.001379    0.000257    0.001558    0.000290    0.001731
    0.000321    0.001894    0.000241    0.002048    0.000263    0.002206
    0.000283    0.002347    0.000305    0.002498    0.000325    0.002637
    0.000347    0.002788    0.000368    0.002932    0.000390    0.003075
    0.001697    0.003067    0.001702    0.002860    0.001788    0.002815
    0.001868    0.002740    0.001949    0.002646    0.002029    0.002526
    0.002103    0.002372    0.001119    0.002194    0.001156    0.001987
    0.001189    0.001747    0.001224    0.001476    0.001259    0.001399
    0.001290    0.001314   -0.001113    0.001211   -0.001138    0.001100
   -0.001166    0.000976   -0.001193    0.000835   -0.001217    0.000673
   -0.003226    0.000493   -0.003289    0.000288   -0.003347    0.000059
   -0.003406   -0.000200
   0.9965904  -0.0002045  -0.0024597   1.0003978       0.104      -0.195
   0.9964258  -0.0002790  -0.0021231   1.0002346      -0.043      -0.182
   0.9962597  -0.0003535  -0.0018225   1.0000713      -0.213      -0.302
   0.9960944  -0.0004280  -0.0015371   0.9999081      -0.111      -0.423
   0.9969996  -0.0005015  -0.0012704   0.9997448      -0.025      -0.143
   0.9968346  -0.0005758  -0.0010140   0.9995812      -0.068      -0.210
   0.9966710  -0.0006501  -0.0007693   0.9994174      -0.211      -0.185
   0.9965083  -0.0006010  -0.0006602   0.9992539      -0.182      -0.187
   0.9965646  -0.0005520  -0.0005593   0.9993114      -0.169      -0.240
   0.9996689  -0.0005036  -0.0004679   0.9993691       0.149      -0.198
   0.9997265  -0.0004545  -0.0003835   0.9994266       0.069      -0.209
   0.9997843  -0.0004055  -0.0003054   0.9994845       0.219      -0.210
   0.9998422  -0.0003565  -0.0004945   0.9995424       0.083      -0.280
   0.9999000  -0.0003442  -0.0006410   0.9996004       0.050      -0.227
   0.9999580  -0.0003320  -0.0007829   0.9996582      -0.081      -0.352
   1.0013897  -0.0003199  -0.0009217   0.9997641       0.078      -0.078
   1.0014951  -0.0003076  -0.0010558   0.9998702       0.059      -0.293
   1.0016022  -0.0002954  -0.0011872   0.9999763      -0.082      -0.173
   1.0017084  -0.0002831  -0.0013146   1.0000824      -0.092      -0.254
   1.0018146  -0.0001716  -0.0015396   1.0001880      -0.214      -0.242
   1.0019215  -0.0000601  -0.0017621   1.0002940       0.011      -0.312
   1.0020280   0.0000514  -0.0019847   1.0003994       0.119      -0.445
   1.0005616   0.0001630  -0.0021992   1.0004191      -0.047      -0.362
   1.0005820   0.0002747  -0.0020193   1.0004389       0.097      -0.470
   1.0006022   0.0003863  -0.0018462   1.0004586       0.199      -0.356
   1.0006220   0.0003797  -0.0015625   1.0004787       0.291      -0.158
   1.0006422   0.0003731  -0.0012847   1.0004989       0.121      -0.162
   1.0006616   0.0003665  -0.0010116   1.0005189       0.217      -0.087
   1.0006814   0.0003599  -0.0007434   1.0005391       0.214       0.143
   1.0006603   0.0003533  -0.0004789   1.0005186       0.063       0.090
   1.0006393   0.0003467  -0.0002175   1.0004985       0.052       0.035
   0.9998422   0.0004061  -0.0000248   1.0004777       0.062       0.038
   0.9998209   0.0004657   0.0001657   1.0004572       0.047       0.084
   0.9997999   0.0005252   0.0003547   1.0004365       0.130       0.020
   0.9997798   0.0005848   0.0003265   1.0004160       0.162      -0.054
   0.9997597   0.0006444   0.0002986   1.0003952       0.087      -0.063
   0.9996662   0.0007039   0.0002710   1.0003015       0.080       0.079
   0.9995718   0.0005831   0.0004237   1.0002086       0.118       0.104
   0.9994777   0.0004624   0.0005769   1.0001160       0.004       0.057
   0.9993838   0.0003416   0.0007303   1.0000231      -0.330       0.159
   0.9997863   0.0002206   0.0008862   0.9999305      -0.031       0.068
   0.9996916   0.0001001   0.0010417   0.9998376      -0.149       0.126
   0.9995972  -0.0000204   0.0011985   0.9997448      -0.023       0.138
   0.9995040   0.0000498   0.0011654   0.9996511      -0.035      -0.075
   0.9994221   0.0001200   0.0011339   0.9995682       0.062       0.065
   0.9993401   0.0001901   0.0011039   0.9994860      -0.002      -0.032
   0.9992581   0.0002602   0.0010290   0.9994027      -0.190       0.058
   0.9991767   0.0003304   0.0009551   0.9993200      -0.286       0.024
   0.9990959   0.0004005   0.0008799   0.9992380      -0.150      -0.072
   0.9987063   0.0003850   0.0008905   0.9991558      -0.195       0.082
   0.9986247   0.0003695   0.0009026   0.9990741      -0.120      -0.034
   0.9987482   0.0003542   0.0009148   0.9991978      -0.160      -0.147
   0.9988710   0.0003388   0.0009284   0.9993210       0.179       0.426
   0.9989945   0.0003233   0.0009422   0.9994447       0.051       0.176
   0.9991181   0.0003079   0.0009617   0.9995683       0.120       0.231
   0.9992412   0.0002476   0.0010273   0.9996923      -0.124       0.383
   0.9993646   0.0001873   0.0010944   0.9998166      -0.138       0.280
   1.0015113   0.0001269   0.0010526   0.9999406       0.055       0.092
   1.0015163   0.0000666   0.0009893   0.9999459      -0.022       0.065
   1.0015231   0.0000063   0.0009398   0.9999516      -0.126       0.125
   1.0015287  -0.0000540   0.0008843   0.9999569      -0.086      -0.046
   1.0015342  -0.0000965   0.0008078   0.9999623      -0.060       0.053
   1.0015404  -0.0001391   0.0007275   0.9999676      -0.181       0.205
   1.0015471  -0.0001817   0.0006420   0.9999729      -0.239       0.296
   1.0019864  -0.0002247   0.0005511   0.9999783      -0.213       0.204
   1.0021273  -0.0002674   0.0004560   1.0001178      -0.052       0.118
   1.0022629  -0.0003101   0.0003533   1.0002564      -0.146       0.042
   1.0024037  -0.0004642   0.0003561   1.0003960       0.123       0.164
   1.0025483  -0.0006185   0.0004989   1.0005366       0.068       0.733
   1.0026824  -0.0007727   0.0006410   1.0006748       0.326       0.308
   1.0018007  -0.0009292   0.0007802   1.0008150       0.113       0.570
   1.0019383  -0.0010839   0.0009227   1.0009534       0.288       0.244
   1.0017785  -0.0012383   0.0010638   1.0007937      -0.082       0.339
   1.0016191  -0.0009758   0.0007886   1.0006336      -0.013       0.286
   1.0014598  -0.0007134   0.0005125   1.0004735      -0.030       0.198
   1.0002983  -0.0004518   0.0002341   1.0003133       0.132       0.333
   1.0001378  -0.0001892  -0.0000452   1.0001532       0.134       0.349
   0.9999769   0.0000732  -0.0003263   0.9999927       0.025      -0.265
   0.9998158   0.0003357  -0.0006087   0.9998325       0.156      -0.162
   0.02   0.03   0.05   0.06   0.07   0.07   0.08   0.09   0.09   0.07
   0.04   0.01  -0.01  -0.04  -0.07  -0.07  -0.07  -0.07  -0.07  -0.07
  -0.08  -0.10  -0.11  -0.12  -0.14  -0.15  -0.17  -0.14  -0.10  -0.07
  -0.04  -0.01   0.02   0.05   0.08   0.12   0.15   0.19   0.22   0.25
   0.29   0.26   0.23   0.21   0.18   0.15   0.12   0.10   0.08   0.06
   0.04   0.02   0.00  -0.02  -0.03  -0.04  -0.06  -0.07  -0.09  -0.10
  -0.10  -0.09  -0.09  -0.09  -0.08  -0.08  -0.11  -0.13  -0.16  -0.19
  -0.21  -0.15  -0.08  -0.02   0.05   0.12   0.11   0.10   0.10
    0.000692   -0.001861    0.000679   -0.001685    0.000667   -0.001540
    0.000654   -0.001404   -0.002448   -0.001279   -0.002397   -0.001164
   -0.002342   -0.001058   -0.002287   -0.000962   -0.002230   -0.000871
   -0.000544   -0.000787   -0.000530   -0.000709   -0.000514   -0.000637
   -0.000497   -0.000787   -0.000481   -0.000917   -0.000463   -0.001031
    0.000285   -0.001130    0.000274   -0.001214    0.000263   -0.001285
    0.000252   -0.001339    0.000241   -0.001381    0.000229   -0.001406
    0.000217   -0.001424    0.000677   -0.001423    0.000637   -0.001415
    0.000595   -0.001390    0.000553   -0.001356    0.000510   -0.001309
    0.000467   -0.001253    0.000428   -0.001197    0.000387   -0.001126
    0.000345   -0.001047    0.000019   -0.000962    0.000017   -0.000861
    0.000015   -0.000753    0.000012   -0.000623    0.000009   -0.000489
    0.000006   -0.000342    0.000003   -0.000191    0.000000   -0.000027
   -0.000002    0.000141    0.000092    0.000324    0.000144    0.000522
    0.000198    0.000736    0.000250    0.000955    0.000304    0.001195
    0.000355    0.001439    0.000408    0.001572    0.000460    0.001684
    0.000512    0.001781    0.000463    0.001852    0.000506    0.001912
    0.000547    0.001940    0.000590    0.001958    0.000631    0.001950
    0.000673    0.001921    0.000713    0.001869    0.000753    0.001795
    0.001586    0.001702    0.001588    0.001494    0.001665    0.001364
    0.001739    0.001209    0.001814    0.001029    0.001887    0.000821
    0.001956    0.000582    0.000362    0.000315    0.000374    0.000016
    0.000385   -0.000316    0.000397   -0.000683    0.000409   -0.000794
    0.000419   -0.000917   -0.002095   -0.001048   -0.002141   -0.001189
   -0.002190   -0.001344   -0.002237   -0.001513   -0.002281   -0.001693
   -0.004999   -0.001894   -0.005098   -0.002119   -0.005191   -0.002374
   -0.005284   -0.002650
   0.9991995  -0.0022523   0.0025572   0.9998614       0.076      -0.345
   0.9992438  -0.0018543   0.0022397   0.9999035      -0.363      -0.161
   0.9992879  -0.0014564   0.0019184   0.9999462      -0.236      -0.183
   0.9993318  -0.0010584   0.0015915   0.9999887      -0.008      -0.314
   1.0015061  -0.0006591   0.0012649   1.0000315      -0.020      -0.169
   1.0015509  -0.0002618   0.0009283   1.0000743      -0.069      -0.151
   1.0015942   0.0001356   0.0005879   1.0001168      -0.042      -0.142
   1.0016366   0.0000329   0.0007480   1.0001596      -0.078      -0.157
   1.0015752  -0.0000697   0.0009046   1.0000975       0.045      -0.227
   1.0002161  -0.0001725   0.0010557   1.0000354       0.148      -0.164
   1.0001540  -0.0002753   0.0012079   0.9999732       0.238      -0.119
   1.0000917  -0.0003780   0.0013578   0.9999108       0.143      -0.185
   1.0000291  -0.0004807   0.0014068   0.9998487       0.110      -0.188
   0.9999666  -0.0004369   0.0013112   0.9997866      -0.044      -0.202
   0.9999043  -0.0003931   0.0012183   0.9997244      -0.153      -0.098
   0.9993032  -0.0003496   0.0011272   0.9998067       0.133      -0.196
   0.9993858  -0.0003058   0.0010398   0.9998890      -0.047      -0.190
   0.9994679  -0.0002620   0.0009546   0.9999713      -0.011      -0.347
   0.9995502  -0.0002182   0.0008707   1.0000536      -0.204      -0.261
   0.9996321  -0.0002206   0.0008350   1.0001359      -0.236      -0.354
   0.9997144  -0.0002231   0.0008000   1.0002185      -0.286      -0.333
   0.9997966  -0.0002255   0.0007669   1.0003006      -0.162      -0.331
   0.9994394  -0.0002281   0.0007338   1.0003233       0.001      -0.342
   0.9994612  -0.0002306   0.0008386   1.0003456       0.051      -0.322
   0.9994826  -0.0002330   0.0009415   1.0003684       0.103      -0.285
   0.9995049  -0.0001902   0.0009979   1.0003905       0.166      -0.204
   0.9995269  -0.0001475   0.0010529   1.0004131       0.002      -0.308
   0.9995489  -0.0001047   0.0011080   1.0004352      -0.056      -0.323
   0.9995706  -0.0000619   0.0011628   1.0004576       0.166      -0.323
   0.9994996  -0.0000192   0.0012167   1.0003870       0.088      -0.298
   0.9994286   0.0000236   0.0012701   1.0003161       0.114      -0.288
   1.0004826   0.0001278   0.0012643   1.0002450      -0.067      -0.306
   1.0004119   0.0002319   0.0012560   1.0001739      -0.098      -0.233
   1.0003411   0.0003361   0.0012479   1.0001029      -0.022      -0.185
   1.0002708   0.0004402   0.0011499   1.0000319       0.017      -0.197
   1.0002007   0.0005443   0.0010529   0.9999608      -0.073      -0.285
   1.0000999   0.0006484   0.0009567   0.9998590       0.016      -0.282
