  61.01
  59.45
  57.91
  56.39
  54.89
  53.38
  51.84
  50.29
  48.75
  47.24
  45.73
  44.16
  42.61
  41.11
  39.54
  38.02
  36.43
  34.90
  33.36
  31.87
  30.31
  28.77
  27.26
  25.76
  24.22
  22.67
  21.13
  19.54
  17.97
  16.46
  14.88
  13.33
  11.84
  10.40
   8.88
   7.42
   5.97
   4.52
   3.01
   1.53
   0.02
  -1.45
  -2.96
  -4.48
  -5.92
  -7.31
  -8.76
 -10.18
 -11.64
 -13.14
 -14.71
 -16.22
 -17.72
 -17.77
 -19.28
 -20.81
 -22.27
 -23.81
 -25.34
 -26.83
 -28.37
 -29.86
 -31.29
 -32.82
 -34.29
 -35.75
 -37.26
 -38.77
 -40.21
 -41.75
 -43.24
 -44.74
 -46.23
 -47.70
 -49.17
 -50.78
 -52.28
 -53.85
 -55.33
 -56.88
 -58.32
