  60.00
  58.48
  56.97
  55.48
  54.00
  52.52
  51.00
  49.48
  47.97
  46.48
  45.00
  43.48
  41.97
  40.52
  39.00
  37.52
  35.97
  34.48
  32.97
  31.52
  30.00
  28.48
  27.00
  25.52
  24.00
  22.48
  21.00
  19.48
  17.97
  16.52
  15.00
  13.52
  12.00
  10.52
   8.97
   7.48
   6.00
   4.52
   3.00
   1.52
   0.00
  -1.47
  -2.99
  -4.51
  -6.02
  -7.47
  -8.99
 -10.47
 -11.99
 -13.47
 -15.02
 -16.51
 -17.99
 -18.02
 -19.51
 -21.02
 -22.47
 -23.99
 -25.51
 -26.99
 -28.51
 -30.02
 -31.47
 -33.02
 -34.51
 -35.99
 -37.51
 -39.02
 -40.47
 -42.02
 -43.51
 -45.02
 -46.51
 -47.99
 -49.47
 -51.02
 -52.47
 -53.99
 -55.47
 -57.02
 -58.47
