   0.9944136  -0.0269822   0.0295785   0.9995660      51.200       0.180
   0.9963081  -0.0274380   0.0297146   1.0014886      38.224      14.501
   0.9967166  -0.0271792   0.0291590   1.0019101      93.144      18.242
   0.9984904  -0.0276730   0.0293720   1.0031435      93.940      10.343
   0.9991426  -0.0276714   0.0291235   1.0038087      84.847      12.195
   1.0001501  -0.0278848   0.0291098   1.0048319      87.086      10.300
   1.0010386  -0.0285851   0.0296006   1.0057344      89.616       8.682
   1.0031660  -0.0290221   0.0297701   1.0054557      87.484       3.023
   1.0037997  -0.0292378   0.0298005   1.0060978      85.073       4.655
   1.0042899  -0.0296455   0.0300347   1.0065953      27.816      12.364
   1.0043550  -0.0301169   0.0303424   1.0066655      27.831      14.705
   1.0054692  -0.0305213   0.0305918   1.0077896      31.295      13.721
   1.0068452  -0.0308639   0.0308627   1.0073034      -7.592     -14.020
   1.0072362  -0.0309992   0.0309837   1.0076952     -11.375     -15.240
   1.0076581  -0.0312577   0.0312284   1.0081179      -8.149     -16.946
   1.0081764  -0.0312509   0.0312083   1.0086371      -4.181     -19.901
   1.0085109  -0.0313716   0.0313163   1.0089723      -9.914     -16.138
   1.0090775  -0.0315973   0.0315297   1.0095398     -11.441     -15.471
   1.0090125  -0.0317875   0.0317081   1.0094751      -2.415     -15.236
   1.0094472  -0.0319190   0.0318135   1.0094506      -2.843      -9.515
   1.0098790  -0.0323495   0.0322327   1.0098827      -7.488     -14.648
   1.0102969  -0.0323343   0.0322065   1.0103010      -4.092     -15.635
   1.0102477  -0.0324728   0.0323341   1.0102521      -3.020     -16.770
   1.0102003  -0.0324805   0.0323312   1.0102050      -3.600     -14.968
   1.0103568  -0.0328006   0.0327410   1.0103587      -0.203     -14.985
   1.0105414  -0.0327131   0.0327412   1.0105406       1.876     -12.130
   1.0108258  -0.0328810   0.0329857   1.0105419      -1.266     -14.151
   1.0109659  -0.0330551   0.0332437   1.0106794       0.275     -16.724
   1.0112076  -0.0330335   0.0333046   1.0109181      -0.354     -15.344
   1.0113071  -0.0330708   0.0334233   1.0110149       2.095     -15.680
   1.0112634  -0.0332588   0.0336915   1.0109686      -1.970     -17.225
   1.0112932  -0.0330840   0.0335962   1.0109957      -0.344     -14.039
   1.0112858  -0.0333668   0.0339579   1.0109855       8.004     -16.426
   1.0107713  -0.0334699   0.0341392   1.0104685       1.006     -20.707
   1.0107658  -0.0333092   0.0340567   1.0104605       1.952     -18.501
   1.0102413  -0.0334853   0.0343358   1.0127791       3.588     -14.212
   1.0099066  -0.0334160   0.0342735   1.0124426       8.301     -10.509
   1.0098351  -0.0336427   0.0345087   1.0123703       8.562     -12.028
   1.0098053  -0.0338371   0.0347120   1.0123398       0.350     -12.858
   1.0098352  -0.0339275   0.0348116   1.0123696      11.936     -17.134
   1.0103215  -0.0338336   0.0347274   1.0128582      11.873     -14.202
   1.0090269  -0.0338854   0.0347881   1.0115566     -28.209     -17.599
   1.0093960  -0.0339025   0.0348161   1.0119270     -21.499     -15.281
   1.0093894  -0.0340921   0.0350174   1.0119200     -13.743     -15.785
   1.0090082  -0.0343269   0.0353204   1.0131485     -12.065     -12.140
   1.0087986  -0.0350918   0.0361004   1.0129364      -7.474     -13.673
   1.0095007  -0.0345397   0.0355597   1.0136441       0.809     -11.881
   1.0097191  -0.0343524   0.0356915   1.0138533      12.618     -13.540
   1.0097562  -0.0341612   0.0358230   1.0138795      17.879     -11.764
   1.0099283  -0.0338267   0.0358156   1.0140421      19.186     -15.164
   1.0099711  -0.0342622   0.0365873   1.0140725       4.772     -15.739
   1.0102619  -0.0339079   0.0365723   1.0143542      -1.781     -15.656
   1.0105261  -0.0331450   0.0361722   1.0151203      43.428     -16.619
   1.0101868  -0.0339418   0.0372994   1.0147637       9.683      -4.808
   1.0102171  -0.0335054   0.0372193   1.0147828      11.238     -12.233
   1.0107177  -0.0337779   0.0378627   1.0152738       4.845     -10.340
   1.0113804  -0.0336734   0.0381372   1.0159293     -11.081     -12.057
   1.0117096  -0.0337296   0.0385852   1.0162470      -7.877     -10.908
   1.0118756  -0.0336961   0.0388878   1.0164025     -11.960      -9.262
   1.0127577  -0.0335148   0.0390564   1.0172811      -4.419      -8.434
   1.0129678  -0.0334241   0.0393003   1.0167688     -57.545      16.476
   1.0137405  -0.0333380   0.0395918   1.0175345     -34.512      22.393
   1.0143631  -0.0331622   0.0398043   1.0181491     -53.878      12.559
   1.0145034  -0.0327612   0.0398116   1.0182784     -39.049      22.298
   1.0146352  -0.0326552   0.0401292   1.0183967     -38.099      24.996
   1.0151241  -0.0322081   0.0401262   1.0188771     -44.082      22.750
   1.0162876  -0.0343960   0.0428023   1.0200158     -60.910      19.672
   1.0177623  -0.0345864   0.0433783   1.0186050     -23.695      66.736
   1.0187933  -0.0349245   0.0442391   1.0196160     -49.652      64.569
   1.0187191  -0.0344710   0.0443414   1.0195251     -22.733      62.561
   1.0193406  -0.0346491   0.0450485   1.0201271     -55.954      25.005
   1.0201062  -0.0347114   0.0456789   1.0208731     -22.377      26.122
   1.0209931  -0.0352990   0.0468038   1.0202705     -73.788      19.974
   1.0222291  -0.0353984   0.0475497   1.0214810     -58.070      20.520
   1.0233364  -0.0357032   0.0485460   1.0225587     -62.060      13.685
   1.0229694  -0.0358663   0.0494706   1.0221612     -15.438      21.305
   1.0234874  -0.0366891   0.0510993   1.0226376     -34.335      14.222
   1.0226808  -0.0368450   0.0521960   1.0230013     -17.200      21.584
   1.0230430  -0.0368306   0.0531211   1.0233288     -12.011      14.578
   1.0230153  -0.0364495   0.0537892   1.0232677     -10.523      21.644
   1.0241883  -0.0353321   0.0537937   1.0244217     -12.012      19.621
