   0.9999215  -0.0125301   0.0125301   0.9999215      -2.206      -0.976
   1.0018622  -0.0133756   0.0133756   1.0018620      -1.967      -0.732
   1.0020046  -0.0142139   0.0142139   1.0020046      -1.940      -1.020
   1.0029333  -0.0147688   0.0147688   1.0029333      -1.949      -0.950
   1.0032370  -0.0150759   0.0150759   1.0032370      -1.988      -1.036
   1.0034699  -0.0152373   0.0152373   1.0034699      -1.937      -1.286
   1.0046841  -0.0155987   0.0155987   1.0046841      -1.961      -1.380
   1.0055392  -0.0161242   0.0161242   1.0055391      -1.838      -1.226
   1.0059860  -0.0164611   0.0164611   1.0059860      -1.894      -1.053
   1.0066805  -0.0172616   0.0172616   1.0066805      -1.921      -0.895
   1.0067704  -0.0175904   0.0175904   1.0067704      -1.891      -0.913
   1.0075560  -0.0179020   0.0179020   1.0075560      -1.630      -0.729
   1.0083222  -0.0187816   0.0187816   1.0083222      -1.609      -0.751
   1.0082939  -0.0187473   0.0187473   1.0082939      -1.436      -0.674
   1.0085419  -0.0191721   0.0191721   1.0085419      -1.351      -0.710
   1.0087234  -0.0193246   0.0193246   1.0087234      -1.173      -0.585
   1.0086341  -0.0196063   0.0196063   1.0086341      -1.171      -0.499
   1.0091650  -0.0200508   0.0200508   1.0091650      -1.026      -0.301
   1.0090311  -0.0204950   0.0204950   1.0090311      -0.949      -0.198
   1.0093985  -0.0205952   0.0205952   1.0093985      -0.901      -0.161
   1.0098479  -0.0211270   0.0211270   1.0098478      -0.765      -0.109
   1.0101701  -0.0211883   0.0211883   1.0101701      -0.671      -0.098
   1.0103073  -0.0214569   0.0214569   1.0103073      -0.623      -0.071
   1.0102566  -0.0214548   0.0214548   1.0102566      -0.563      -0.044
   1.0106974  -0.0218838   0.0218838   1.0106974      -0.543      -0.050
   1.0108711  -0.0218768   0.0218768   1.0108711      -0.502       0.009
   1.0109992  -0.0218625   0.0218625   1.0109992      -0.412       0.059
   1.0105726  -0.0220353   0.0220353   1.0105724      -0.435       0.108
   1.0111189  -0.0224928   0.0224928   1.0111189      -0.421      -0.003
   1.0111476  -0.0223772   0.0223772   1.0111476      -0.346       0.004
   1.0113814  -0.0223165   0.0223165   1.0113814      -0.319       0.047
   1.0113372  -0.0228101   0.0228101   1.0113370      -0.326       0.139
   1.0117790  -0.0231203   0.0231203   1.0117790      -0.288       0.114
   1.0117719  -0.0234003   0.0234003   1.0117719      -0.205       0.199
   1.0119061  -0.0232870   0.0232870   1.0119061      -0.127       0.209
   1.0121026  -0.0235727   0.0235727   1.0121026      -0.047       0.225
   1.0124489  -0.0233750   0.0233750   1.0124489      -0.064       0.178
   1.0125885  -0.0237469   0.0237469   1.0125885      -0.052       0.216
   1.0126630  -0.0232502   0.0232502   1.0126630      -0.027       0.143
   1.0130399  -0.0240363   0.0240363   1.0130399      -0.031       0.185
   1.0136242  -0.0237498   0.0237498   1.0136242       0.000       0.176
   1.0125419  -0.0239859   0.0239859   1.0125418      -0.053       0.200
   1.0128298  -0.0241422   0.0241422   1.0128298       0.016       0.213
   1.0131996  -0.0241639   0.0241639   1.0131996       0.049       0.186
   1.0132592  -0.0241621   0.0241621   1.0132592       0.108       0.179
   1.0129898  -0.0255130   0.0255130   1.0129898       0.135       0.233
   1.0137910  -0.0249239   0.0249239   1.0137910       0.264       0.137
   1.0138021  -0.0249860   0.0249860   1.0138021       0.210       0.126
   1.0136263  -0.0252073   0.0252073   1.0136263       0.248       0.161
   1.0143880  -0.0246497   0.0246497   1.0143880       0.076       0.285
   1.0136856  -0.0256318   0.0256318   1.0136856       0.091       0.365
   1.0139989  -0.0257165   0.0257165   1.0139989       0.135       0.419
   1.0149951  -0.0250547   0.0250547   1.0149951       0.303       0.157
   1.0142454  -0.0262642   0.0262642   1.0142454       0.263       0.255
   1.0150173  -0.0259630   0.0259630   1.0150173       0.127       0.388
   1.0148746  -0.0267187   0.0267187   1.0148746       0.155       0.485
   1.0156686  -0.0266131   0.0266131   1.0156686       0.327       0.446
   1.0160598  -0.0269353   0.0269353   1.0160598       0.266       0.472
   1.0160801  -0.0270330   0.0270330   1.0160801       0.266       0.451
   1.0168223  -0.0269774   0.0269774   1.0168223       0.253       0.528
   1.0168611  -0.0273205   0.0273205   1.0168611       0.286       0.544
   1.0174006  -0.0273912   0.0273912   1.0174006       0.461       0.552
   1.0174446  -0.0276208   0.0276208   1.0174446       0.537       0.551
   1.0172230  -0.0277081   0.0277081   1.0172230       0.616       0.483
   1.0171603  -0.0271176   0.0271176   1.0171603       0.641       0.419
   1.0179824  -0.0276172   0.0276172   1.0179822       0.711       0.406
   1.0185965  -0.0298889   0.0298889   1.0185965       1.006       0.545
   1.0188392  -0.0304536   0.0304536   1.0188392       1.022       0.580
   1.0197219  -0.0312256   0.0312256   1.0197219       1.094       0.632
   1.0192305  -0.0308072   0.0308072   1.0192306       0.996       0.683
   1.0195599  -0.0307733   0.0307733   1.0195599       0.980       0.488
   1.0200241  -0.0297657   0.0297657   1.0200241       1.159       0.358
   1.0197331  -0.0308702   0.0308702   1.0197332       1.082       0.447
   1.0203980  -0.0317827   0.0317827   1.0203980       1.164       0.471
   1.0214375  -0.0325150   0.0325150   1.0214375       1.293       0.419
   1.0209857  -0.0319884   0.0319884   1.0209857       1.626       0.155
   1.0223138  -0.0325479   0.0325479   1.0223138       1.550       0.151
   1.0225720  -0.0335204   0.0335204   1.0225720       1.389       0.132
   1.0220704  -0.0341864   0.0341864   1.0220703       1.463       0.109
   1.0215442  -0.0348529   0.0348529   1.0215442       0.939       0.308
   1.0222294  -0.0341598   0.0341598   1.0222294       0.540       0.321
