   1.0000179  -0.0172812   0.0153775   0.9998831      -8.483      -2.377
   1.0002519  -0.0233486   0.0216924   1.0001228       3.147       4.480
   1.0008229  -0.0271805   0.0257416   1.0006940       7.394       0.532
   1.0014061  -0.0268150   0.0255795   1.0012711       0.483       1.436
   0.9988075  -0.0256607   0.0246634   1.0005026      -9.369      -2.939
   0.9994540  -0.0254338   0.0246121   1.0011464      -5.341       1.385
   0.9994776  -0.0259160   0.0252609   1.0011665      -1.904      -0.483
   0.9993248  -0.0259305   0.0254305   1.0010091      -4.059       4.007
   0.9997699  -0.0261410   0.0257881   1.0014520      -1.689       2.699
   1.0007013  -0.0271949   0.0269539   1.0013170       0.495       1.711
   1.0014133  -0.0274430   0.0273339   1.0020263      -0.373       1.577
   1.0013340  -0.0276159   0.0276327   1.0019435      -1.496       4.029
   1.0011203  -0.0283378   0.0280315   1.0017385       7.095       2.452
   1.0013684  -0.0284410   0.0278246   1.0019958      -3.239       4.394
   1.0013396  -0.0297647   0.0288508   1.0019764       5.917       0.481
   1.0023056  -0.0289492   0.0277288   1.0023404      -0.086       3.902
   1.0017420  -0.0306169   0.0291190   1.0017869       9.544       2.197
   1.0021490  -0.0299136   0.0281443   1.0022006       1.622       5.482
   1.0021223  -0.0307325   0.0287012   1.0021830       3.637       6.669
   1.0021569  -0.0309857   0.0286980   1.0022256       3.042       4.504
   1.0022242  -0.0314227   0.0288856   1.0023012       4.323       2.763
   1.0022380  -0.0315066   0.0287230   1.0023223       3.570       2.924
   1.0030866  -0.0315146   0.0284659   1.0023862       5.778       6.585
   1.0032073  -0.0318214   0.0286733   1.0025104       3.015       1.039
   1.0039045  -0.0317679   0.0285202   1.0032090       4.304       5.914
   1.0039061  -0.0321859   0.0288392   1.0032148       0.367       2.135
   1.0040865  -0.0323850   0.0289393   1.0033983      -1.787       3.989
   1.0040382  -0.0324877   0.0289430   1.0033532     -10.142       2.693
   1.0046515  -0.0320719   0.0284233   1.0039670     -12.080       2.958
   1.0043342  -0.0333310   0.0295803   1.0036577      -2.311       4.782
   1.0043594  -0.0331730   0.0293185   1.0036852      -7.344      -0.534
   1.0038258  -0.0335656   0.0296206   1.0036122      -2.561       3.096
   1.0039557  -0.0337379   0.0296857   1.0037459     -14.887       1.037
   1.0040110  -0.0339008   0.0297396   1.0038049      -4.613       2.424
   1.0038590  -0.0343648   0.0300492   1.0036596      -6.919       3.298
   1.0039226  -0.0344370   0.0299637   1.0037279      -4.388       2.100
   1.0040421  -0.0345778   0.0299444   1.0038528      -1.527       3.635
   1.0040952  -0.0347988   0.0300027   1.0039117      -4.141      -1.018
   1.0039761  -0.0352232   0.0302622   1.0037997      -0.236       1.921
   1.0031559  -0.0354171   0.0302915   1.0029862     -32.317       2.747
   1.0021402  -0.0357752   0.0305350   1.0037067     -25.690       4.029
   1.0026352  -0.0357953   0.0303759   1.0042087     -18.998       7.031
   1.0026060  -0.0359570   0.0303565   1.0041858     -17.700       1.938
   1.0026894  -0.0363055   0.0305187   1.0042772     -13.158       3.459
   1.0029278  -0.0357612   0.0297795   1.0045189      -1.392       5.499
   1.0030395  -0.0364272   0.0302480   1.0046412      12.494       1.989
   1.0041701  -0.0362741   0.0301762   1.0057715      10.878       2.735
   1.0044851  -0.0362461   0.0302316   1.0060848      33.874       0.775
   1.0040939  -0.0367932   0.0308629   1.0056934      56.614      -1.293
   1.0043272  -0.0370714   0.0312169   1.0058479      65.045      -3.322
   1.0040023  -0.0382692   0.0324921   1.0055274      18.600       5.829
   1.0039620  -0.0386576   0.0329559   1.0054870      13.975      -0.814
   1.0048805  -0.0368009   0.0311598   1.0063951      -4.291      -0.224
   1.0048070  -0.0383618   0.0327906   1.0063283      -0.027       0.288
   1.0048233  -0.0388381   0.0333315   1.0063455      12.062       0.019
   1.0050935  -0.0388062   0.0333607   1.0066143      -7.716      -1.787
   1.0050919  -0.0391562   0.0337704   1.0066131      -6.397      -3.823
   1.0048447  -0.0397580   0.0346432   1.0070041      -5.399      -3.942
   1.0044698  -0.0393116   0.0345206   1.0066141       2.685      -5.370
   1.0052520  -0.0392105   0.0346712   1.0073901      -4.748     -10.170
   1.0052282  -0.0397330   0.0354554   1.0073593      -3.459      -8.671
   1.0050797  -0.0399404   0.0359280   1.0072018      -6.598      -8.717
   1.0054512  -0.0391238   0.0353793   1.0075616      -8.154     -12.533
   1.0062685  -0.0392998   0.0358360   1.0083727       0.925     -21.258
   1.0079951  -0.0395383   0.0362817   1.0079249      10.415      -6.747
   1.0085651  -0.0395368   0.0365789   1.0084834       4.572      -4.822
   1.0069845  -0.0403178   0.0376763   1.0068940     -26.443      -9.472
   1.0076540  -0.0400191   0.0377009   1.0075500       7.663      -7.471
   1.0099536  -0.0383505   0.0361846   1.0098393      -5.508      -5.050
   1.0080845  -0.0393268   0.0373256   1.0079671       3.331      -0.029
   1.0117499  -0.0383593   0.0364387   1.0092790     -14.681     -10.346
   1.0107353  -0.0399121   0.0381672   1.0082654      -2.046      -2.277
   1.0110480  -0.0403885   0.0388276   1.0085700      -0.851      -5.781
   1.0111244  -0.0404653   0.0391011   1.0086383     -12.659      -0.218
   1.0113820  -0.0402331   0.0390805   1.0088860     -10.485      -3.224
   1.0137368  -0.0396859   0.0387013   1.0097800      -2.624      -1.491
   1.0145446  -0.0398505   0.0391056   1.0105723       1.415      -2.810
   1.0137730  -0.0439151   0.0434145   1.0097972      -3.163       1.692
   1.0147860  -0.0447085   0.0444880   1.0107899       2.533       4.412
