   0.9999220  -0.0125301   0.0125301   0.9999220      51.781      -0.347
   1.0018626  -0.0133756   0.0133756   1.0018625      38.846      14.256
   1.0020051  -0.0142139   0.0142139   1.0020051      93.878      17.160
   1.0029337  -0.0147688   0.0147688   1.0029337      94.626       9.364
   1.0032375  -0.0150759   0.0150759   1.0032375      85.416      11.456
   1.0034704  -0.0152373   0.0152373   1.0034704      87.637       9.460
   1.0046846  -0.0155987   0.0155987   1.0046846      90.190       7.618
   1.0055397  -0.0161242   0.0161242   1.0055395      87.990       2.061
   1.0059865  -0.0164611   0.0164611   1.0059865      85.507       3.774
   1.0066810  -0.0172616   0.0172616   1.0066810      28.242      12.302
   1.0067708  -0.0175904   0.0175904   1.0067708      28.421      14.585
   1.0075564  -0.0179020   0.0179020   1.0075564      31.918      13.635
   1.0083227  -0.0187816   0.0187816   1.0083227      -7.342     -13.610
   1.0082943  -0.0187473   0.0187473   1.0082943     -11.231     -14.869
   1.0085424  -0.0191721   0.0191721   1.0085424      -8.102     -16.536
   1.0087239  -0.0193246   0.0193246   1.0087239      -4.088     -19.608
   1.0086346  -0.0196063   0.0196063   1.0086346      -9.928     -15.823
   1.0091655  -0.0200508   0.0200508   1.0091655     -11.538     -15.291
   1.0090315  -0.0204950   0.0204950   1.0090315      -2.566     -15.161
   1.0093989  -0.0205952   0.0205952   1.0093989      -2.957      -9.333
   1.0098484  -0.0211270   0.0211270   1.0098482      -7.499     -14.466
   1.0101706  -0.0211883   0.0211883   1.0101706      -4.193     -15.429
   1.0103078  -0.0214569   0.0214569   1.0103078      -3.027     -16.636
   1.0102571  -0.0214548   0.0214548   1.0102571      -3.640     -14.830
   1.0106978  -0.0218838   0.0218838   1.0106978      -0.086     -14.949
   1.0108715  -0.0218768   0.0218768   1.0108715       1.993     -12.076
   1.0109997  -0.0218625   0.0218625   1.0109997      -1.130     -14.028
   1.0105730  -0.0220353   0.0220353   1.0105729       0.389     -16.730
   1.0111194  -0.0224928   0.0224928   1.0111194      -0.212     -15.386
   1.0111481  -0.0223772   0.0223772   1.0111481       2.091     -15.676
   1.0113819  -0.0223165   0.0223165   1.0113819      -1.971     -17.241
   1.0113376  -0.0228101   0.0228101   1.0113375      -0.353     -14.098
   1.0117794  -0.0231203   0.0231203   1.0117794       7.953     -16.638
   1.0117724  -0.0234003   0.0234003   1.0117724       0.847     -20.718
   1.0119066  -0.0232870   0.0232870   1.0119066       1.720     -18.578
   1.0121031  -0.0235727   0.0235727   1.0121031       3.505     -14.394
   1.0124494  -0.0233750   0.0233750   1.0124494       8.296     -10.814
   1.0125890  -0.0237469   0.0237469   1.0125890       8.480     -12.264
   1.0126635  -0.0232502   0.0232502   1.0126635       0.239     -13.057
   1.0130404  -0.0240363   0.0240363   1.0130404      11.748     -17.355
   1.0136247  -0.0237498   0.0237498   1.0136247      11.791     -14.401
   1.0125424  -0.0239859   0.0239859   1.0125422     -28.639     -17.310
   1.0128303  -0.0241422   0.0241422   1.0128303     -21.974     -15.191
   1.0132000  -0.0241639   0.0241639   1.0132000     -14.189     -15.568
   1.0132596  -0.0241621   0.0241621   1.0132596     -12.345     -12.011
   1.0129902  -0.0255130   0.0255130   1.0129902      -7.798     -13.674
   1.0137914  -0.0249239   0.0249239   1.0137914       0.479     -12.033
   1.0138025  -0.0249860   0.0249860   1.0138025      12.284     -13.812
   1.0136268  -0.0252073   0.0252073   1.0136268      17.463     -12.022
   1.0143884  -0.0246497   0.0246497   1.0143884      18.756     -15.449
   1.0136861  -0.0256318   0.0256318   1.0136861       4.223     -15.946
   1.0139993  -0.0257165   0.0257165   1.0139993      -2.400     -15.776
   1.0149956  -0.0250547   0.0250547   1.0149956      42.940     -17.272
   1.0142459  -0.0262642   0.0262642   1.0142459       9.116      -5.087
   1.0150177  -0.0259630   0.0259630   1.0150177      10.645     -12.452
   1.0148751  -0.0267187   0.0267187   1.0148751       4.278     -10.406
   1.0156691  -0.0266131   0.0266131   1.0156691     -11.764     -11.861
   1.0160602  -0.0269353   0.0269353   1.0160602      -8.460     -10.942
   1.0160806  -0.0270330   0.0270330   1.0160806     -12.626      -9.222
   1.0168228  -0.0269774   0.0269774   1.0168228      -5.079      -8.597
   1.0168616  -0.0273205   0.0273205   1.0168616     -58.133      16.859
   1.0174011  -0.0273912   0.0273912   1.0174011     -35.017      22.624
   1.0174451  -0.0276208   0.0276208   1.0174451     -54.577      12.917
   1.0172235  -0.0277081   0.0277081   1.0172235     -39.581      22.461
   1.0171608  -0.0271176   0.0271176   1.0171608     -38.690      25.117
   1.0179828  -0.0276172   0.0276172   1.0179827     -44.826      22.882
   1.0185970  -0.0298889   0.0298889   1.0185970     -61.547      20.229
   1.0188397  -0.0304536   0.0304536   1.0188397     -24.218      66.691
   1.0197223  -0.0312256   0.0312256   1.0197223     -50.171      64.867
   1.0192310  -0.0308072   0.0308072   1.0192311     -23.269      62.594
   1.0195603  -0.0307733   0.0307733   1.0195603     -56.631      25.534
   1.0200245  -0.0297657   0.0297657   1.0200245     -22.773      26.273
   1.0197335  -0.0308702   0.0308702   1.0197337     -74.223      20.951
   1.0203985  -0.0317827   0.0317827   1.0203985     -58.486      21.343
   1.0214380  -0.0325150   0.0325150   1.0214380     -62.531      14.705
   1.0209862  -0.0319884   0.0319884   1.0209862     -15.942      21.509
   1.0223143  -0.0325479   0.0325479   1.0223143     -34.863      14.907
   1.0225725  -0.0335204   0.0335204   1.0225725     -17.587      21.931
   1.0220709  -0.0341864   0.0341864   1.0220708     -12.753      14.889
   1.0215447  -0.0348529   0.0348529   1.0215447     -11.287      21.872
   1.0222299  -0.0341598   0.0341598   1.0222299     -12.811      19.742
