   0.9944131  -0.0269822   0.0295785   0.9995655      -2.553      -1.588
   0.9963076  -0.0274380   0.0297146   1.0014881      -2.219      -1.375
   0.9967161  -0.0271792   0.0291590   1.0019096      -2.018      -1.580
   0.9984899  -0.0276730   0.0293720   1.0031431      -2.143      -1.582
   0.9991421  -0.0276714   0.0291235   1.0038083      -2.157      -1.724
   1.0001496  -0.0278848   0.0291098   1.0048314      -2.103      -1.529
   1.0010381  -0.0285851   0.0296006   1.0057340      -2.191      -1.452
   1.0031655  -0.0290221   0.0297701   1.0054553      -2.204      -1.295
   1.0037992  -0.0292378   0.0298005   1.0060973      -2.125      -1.187
   1.0042894  -0.0296455   0.0300347   1.0065948      -2.158      -1.064
   1.0043545  -0.0301169   0.0303424   1.0066650      -2.271      -1.032
   1.0054687  -0.0305213   0.0305918   1.0077891      -2.028      -0.888
   1.0068448  -0.0308639   0.0308627   1.0073029      -2.045      -0.964
   1.0072358  -0.0309992   0.0309837   1.0076947      -1.770      -0.776
   1.0076576  -0.0312577   0.0312284   1.0081174      -1.600      -0.882
   1.0081760  -0.0312509   0.0312083   1.0086366      -1.493      -0.689
   1.0085105  -0.0313716   0.0313163   1.0089718      -1.326      -0.552
   1.0090771  -0.0315973   0.0315297   1.0095394      -1.094      -0.216
   1.0090120  -0.0317875   0.0317081   1.0094746      -0.961      -0.254
   1.0094467  -0.0319190   0.0318135   1.0094501      -0.899      -0.330
   1.0098785  -0.0323495   0.0322327   1.0098822      -0.932      -0.221
   1.0102965  -0.0323343   0.0322065   1.0103005      -0.744      -0.270
   1.0102472  -0.0324728   0.0323341   1.0102516      -0.850      -0.191
   1.0101998  -0.0324805   0.0323312   1.0102046      -0.727      -0.157
   1.0103563  -0.0328006   0.0327410   1.0103582      -0.854      -0.110
   1.0105410  -0.0327131   0.0327412   1.0105401      -0.770      -0.076
   1.0108253  -0.0328810   0.0329857   1.0105414      -0.745      -0.055
   1.0109655  -0.0330551   0.0332437   1.0106789      -0.754       0.107
   1.0112071  -0.0330335   0.0333046   1.0109177      -0.752       0.030
   1.0113066  -0.0330708   0.0334233   1.0110145      -0.537       0.003
   1.0112629  -0.0332588   0.0336915   1.0109681      -0.547       0.109
   1.0112927  -0.0330840   0.0335962   1.0109953      -0.470       0.183
   1.0112853  -0.0333668   0.0339579   1.0109850      -0.415       0.203
   1.0107708  -0.0334699   0.0341392   1.0104680      -0.264       0.146
   1.0107653  -0.0333092   0.0340567   1.0104600      -0.109       0.212
   1.0102408  -0.0334853   0.0343358   1.0127786      -0.105       0.357
   1.0099062  -0.0334160   0.0342735   1.0124421      -0.133       0.355
   1.0098346  -0.0336427   0.0345087   1.0123699      -0.062       0.330
   1.0098048  -0.0338371   0.0347120   1.0123394      -0.038       0.347
   1.0098348  -0.0339275   0.0348116   1.0123692       0.035       0.268
   1.0103210  -0.0338336   0.0347274   1.0128577       0.000       0.249
   1.0090264  -0.0338854   0.0347881   1.0115561       0.156       0.197
   1.0093955  -0.0339025   0.0348161   1.0119265       0.326       0.319
   1.0093889  -0.0340921   0.0350174   1.0119195       0.338       0.081
   1.0090077  -0.0343269   0.0353204   1.0131481       0.261       0.167
   1.0087981  -0.0350918   0.0361004   1.0129359       0.340       0.292
   1.0095003  -0.0345397   0.0355597   1.0136436       0.508       0.259
   1.0097187  -0.0343524   0.0356915   1.0138528       0.496       0.250
   1.0097557  -0.0341612   0.0358230   1.0138791       0.653       0.215
   1.0099279  -0.0338267   0.0358156   1.0140417       0.494       0.324
   1.0099707  -0.0342622   0.0365873   1.0140721       0.565       0.490
   1.0102614  -0.0339079   0.0365723   1.0143538       0.658       0.505
   1.0105256  -0.0331450   0.0361722   1.0151198       0.851       0.314
   1.0101863  -0.0339418   0.0372994   1.0147632       0.868       0.411
   1.0102166  -0.0335054   0.0372193   1.0147823       0.729       0.458
   1.0107173  -0.0337779   0.0378627   1.0152733       0.726       0.477
   1.0113800  -0.0336734   0.0381372   1.0159289       0.912       0.349
   1.0117091  -0.0337296   0.0385852   1.0162466       0.756       0.580
   1.0118752  -0.0336961   0.0388878   1.0164020       0.838       0.534
   1.0127572  -0.0335148   0.0390564   1.0172806       0.853       0.729
   1.0129673  -0.0334241   0.0393003   1.0167683       0.787       0.804
   1.0137401  -0.0333380   0.0395918   1.0175340       0.997       0.696
   1.0143626  -0.0331622   0.0398043   1.0181487       1.162       0.801
   1.0145029  -0.0327612   0.0398116   1.0182779       1.175       0.732
   1.0146347  -0.0326552   0.0401292   1.0183963       1.302       0.733
   1.0151236  -0.0322081   0.0401262   1.0188767       1.474       0.780
   1.0162871  -0.0343960   0.0428023   1.0200154       1.643       0.721
   1.0177618  -0.0345864   0.0433783   1.0186045       1.835       0.915
   1.0187929  -0.0349245   0.0442391   1.0196155       1.841       0.986
   1.0187186  -0.0344710   0.0443414   1.0195246       1.756       0.933
   1.0193402  -0.0346491   0.0450485   1.0201266       1.765       0.738
   1.0201057  -0.0347114   0.0456789   1.0208726       1.673       0.559
   1.0209926  -0.0352990   0.0468038   1.0202700       1.696       0.630
   1.0222286  -0.0353984   0.0475497   1.0214806       1.754       0.541
   1.0233359  -0.0357032   0.0485460   1.0225582       1.929       0.385
   1.0229689  -0.0358663   0.0494706   1.0221608       2.233       0.229
   1.0234870  -0.0366891   0.0510993   1.0226371       2.183       0.124
   1.0226803  -0.0368450   0.0521960   1.0230008       1.898       0.131
   1.0230426  -0.0368306   0.0531211   1.0233283       2.279       0.056
   1.0230148  -0.0364495   0.0537892   1.0232673       1.712       0.260
   1.0241878  -0.0353321   0.0537937   1.0244212       1.359       0.433
