  64.73
  62.68
  60.63
  58.65
  56.67
  54.70
  52.68
  50.67
  48.66
  46.64
  44.68
  42.71
  40.75
  38.79
  36.82
  34.83
  32.83
  30.83
  28.84
  26.84
  24.87
  22.91
  20.94
  18.98
  17.01
  15.01
  13.01
  11.01
   9.00
   7.00
   5.00
   3.04
   1.09
  -0.86
  -2.82
  -4.78
  -6.74
  -8.72
 -10.71
 -12.70
 -14.68
 -16.67
 -18.65
 -20.63
 -22.62
 -24.60
 -26.57
 -28.55
 -30.53
 -32.48
 -34.44
 -36.39
 -38.35
 -40.31
 -42.30
 -44.30
 -46.30
 -48.28
 -50.29
 -52.28
 -54.27
