     2     2   235   171   149   133     0    20.20000   1
   0.07   0.05   0.02   0.00   0.00  -0.01  -0.01  -0.02  -0.02  -0.03
  -0.04  -0.04  -0.05  -0.05  -0.05  -0.05  -0.05  -0.05  -0.05  -0.05
  -0.05  -0.05  -0.05  -0.05  -0.05  -0.04  -0.02   0.00   0.02   0.04
   0.06   0.08   0.07   0.07   0.07   0.06   0.06   0.05   0.05   0.05
   0.06   0.06   0.07   0.07   0.08   0.08   0.05   0.02  -0.01  -0.04
  -0.07  -0.10  -0.03   0.03   0.10   0.16   0.22   0.22   0.21   0.20
   0.20
   -0.004845   -0.007247   -0.004765   -0.005948   -0.000852   -0.004845
   -0.000835   -0.003910   -0.000819   -0.003103   -0.000800   -0.002399
   -0.001949   -0.001782   -0.001896   -0.001243   -0.001843   -0.000771
   -0.001785   -0.000359   -0.001725    0.000000    0.000000    0.000332
    0.000000    0.000619    0.000000    0.000865    0.000001    0.001073
    0.000001    0.001245    0.000001    0.001383   -0.000195    0.001489
   -0.000183    0.001567   -0.000170    0.001616   -0.000158    0.001640
   -0.000145    0.001647   -0.000132    0.001627   -0.000119    0.001582
   -0.000106    0.001511   -0.000637    0.001426   -0.000555    0.001318
   -0.000472    0.001187   -0.000389    0.001032   -0.000305    0.000854
   -0.000222    0.000651   -0.000133    0.000382   -0.000043    0.000121
    0.000047   -0.000128    0.000217   -0.000368    0.000359   -0.000598
    0.000501   -0.000819    0.000637   -0.001022    0.000773   -0.001218
    0.000907   -0.001405    0.001039   -0.001584    0.001172   -0.001814
    0.001303   -0.002050    0.001607   -0.002298    0.001751   -0.002555
    0.001894   -0.002823    0.002037   -0.003106    0.002178   -0.003402
    0.002315   -0.003713    0.002449   -0.004040    0.001355   -0.004385
    0.001422   -0.004815    0.001484   -0.005260    0.001543   -0.005737
    0.001600   -0.006244    0.001658   -0.006792   -0.002971   -0.007386
   -0.003067   -0.008055   -0.003159   -0.008798   -0.003251   -0.009617
   -0.003339   -0.010526
   1.0022262   0.0019808  -0.0025637   0.9999811       0.063      -0.054
   1.0021753   0.0021219  -0.0026202   0.9999322       0.228      -0.050
   1.0020440   0.0022728  -0.0026744   0.9998833       0.198      -0.005
   1.0019904   0.0024145  -0.0027487   0.9998345       0.240      -0.057
   1.0019399   0.0025562  -0.0028276   0.9997853       0.321      -0.140
   1.0018876   0.0026979  -0.0029128   0.9997365       0.256      -0.111
   1.0008186   0.0028325  -0.0030079   0.9996871       0.225      -0.084
   1.0008651   0.0024529  -0.0025803   0.9997388       0.216      -0.093
   1.0009130   0.0020732  -0.0021567   0.9997894       0.198      -0.139
   1.0009602   0.0016935  -0.0017363   0.9998395       0.206      -0.121
   1.0010079   0.0013138  -0.0013188   0.9998891       0.174      -0.027
   0.9999368   0.0009353  -0.0009977   0.9999378       0.080      -0.040
   0.9999852   0.0005550  -0.0006760   0.9999863       0.075       0.010
   1.0000329   0.0005535  -0.0007298   1.0000345       0.042      -0.018
   1.0000736   0.0005520  -0.0007809   1.0000757       0.017      -0.043
   1.0001140   0.0005506  -0.0008294   1.0001166       0.067      -0.044
   1.0001545   0.0005491  -0.0008759   1.0001577       0.106      -0.008
   1.0007169   0.0005477  -0.0009210   1.0001990       0.121      -0.016
   1.0007573   0.0005462  -0.0009643   1.0002401       0.119      -0.031
   1.0007979   0.0004967  -0.0009586   1.0002809       0.129      -0.056
   1.0008388   0.0004474  -0.0009519   1.0003219       0.160      -0.103
   1.0007237   0.0003979  -0.0013458   1.0002075       0.128      -0.101
   1.0006074   0.0003484  -0.0017279   1.0000931       0.094      -0.075
   1.0004914   0.0002990  -0.0021002   0.9999786       0.053      -0.137
   1.0003755   0.0002495  -0.0024647   0.9998645       0.022      -0.226
   1.0011001  -0.0001458  -0.0024841   0.9997486       0.089      -0.255
   1.0009860  -0.0005406  -0.0024940   0.9996331       0.016      -0.236
   1.0008712  -0.0009355  -0.0025010   0.9995176       0.012      -0.237
   1.0006469  -0.0013301  -0.0025064   0.9992917      -0.012      -0.309
   1.0004230  -0.0017245  -0.0025117   0.9990652      -0.073      -0.317
   1.0001987  -0.0021187  -0.0025185   0.9988385      -0.120      -0.241
   0.9999747  -0.0019834  -0.0024512   0.9986143      -0.129      -0.295
   0.9997505  -0.0018483  -0.0023900   0.9983904      -0.135      -0.316
   0.9995260  -0.0017131  -0.0023346   0.9981657      -0.183      -0.334
   1.0003527  -0.0015775  -0.0022883   0.9983065      -0.118      -0.328
   1.0004939  -0.0014430  -0.0022428   0.9984483      -0.090      -0.287
   1.0006348  -0.0013086  -0.0022009   0.9985902      -0.065      -0.298
   1.0007774  -0.0015315  -0.0018017   0.9987308      -0.018      -0.272
   1.0009204  -0.0017545  -0.0014044   0.9988707      -0.017      -0.196
   1.0010629  -0.0019775  -0.0010082   0.9990103      -0.030      -0.116
   1.0012062  -0.0022006  -0.0006125   0.9991497      -0.035      -0.075
   1.0013289  -0.0024236  -0.0003755   0.9992688      -0.035      -0.032
   1.0014514  -0.0026468  -0.0001413   0.9993879      -0.064      -0.016
   1.0002611  -0.0023981  -0.0003815   0.9995100      -0.116      -0.057
   1.0003812  -0.0021541  -0.0006249   0.9996323      -0.143      -0.058
   1.0005014  -0.0019101  -0.0008716   0.9997548      -0.096      -0.009
   1.0006211  -0.0016660  -0.0011240   0.9998772      -0.068      -0.030
   1.0007414  -0.0014219  -0.0013805   0.9999997      -0.037      -0.008
   1.0007343  -0.0011775  -0.0016412   0.9999950       0.002      -0.074
   1.0007291  -0.0012222  -0.0016150   0.9999889      -0.035      -0.096
   0.9996186  -0.0012682  -0.0015904   0.9999827      -0.156      -0.057
   0.9996131  -0.0013128  -0.0017077   0.9999764      -0.179      -0.060
   0.9996079  -0.0013576  -0.0018273   0.9999703      -0.175      -0.077
   0.9996026  -0.0014022  -0.0019587   0.9999639      -0.099      -0.062
   0.9995975  -0.0014469  -0.0021021   0.9999578      -0.003      -0.046
   0.9994702  -0.0015741  -0.0021773   0.9998280       0.043      -0.077
   0.9942473  -0.0017034  -0.0022552   0.9996985      -0.222      -0.072
   0.9941199  -0.0018306  -0.0023820   0.9995687      -0.190      -0.114
   0.9939973  -0.0019578  -0.0025382   0.9994390      -0.170      -0.144
   0.9938670  -0.0020850  -0.0027258   0.9993083      -0.248      -0.129
   0.9937373  -0.0022121  -0.0029504   0.9991777      -0.182      -0.187
   0.16   0.10   0.05  -0.01  -0.02  -0.03  -0.05  -0.06  -0.06  -0.05
  -0.05  -0.05  -0.05  -0.02   0.02   0.05   0.08   0.12   0.10   0.08
   0.06   0.04   0.02   0.01  -0.01  -0.03  -0.05  -0.07  -0.09  -0.11
  -0.13  -0.15  -0.12  -0.10  -0.08  -0.05  -0.03  -0.01   0.02   0.00
  -0.02  -0.04  -0.06  -0.08  -0.10  -0.12  -0.10  -0.08  -0.06  -0.03
  -0.01   0.01  -0.01  -0.03  -0.05  -0.06  -0.08  -0.08  -0.07  -0.06
  -0.05
   -0.009104   -0.013167   -0.008952   -0.010789   -0.000183   -0.008776
   -0.000182   -0.007073   -0.000180   -0.005611   -0.000177   -0.004337
   -0.000683   -0.003221   -0.000665   -0.002246   -0.000647   -0.001394
   -0.000627   -0.000650   -0.000606    0.000000    0.000000    0.000177
    0.000000    0.000329    0.000000    0.000461    0.000000    0.000573
    0.000000    0.000665    0.000000    0.000739   -0.000968    0.000798
   -0.000909    0.000839   -0.000849    0.000865   -0.000789    0.000877
   -0.000728    0.000711   -0.000665    0.000563   -0.000602    0.000434
   -0.000537    0.000323   -0.000372    0.000230   -0.000324    0.000152
   -0.000274    0.000090   -0.000225    0.000042   -0.000175    0.000008
   -0.000125   -0.000012   -0.000072   -0.000001   -0.000020    0.000001
    0.000032   -0.000004    0.000077   -0.000018    0.000125   -0.000041
    0.000173   -0.000071    0.000219   -0.000109    0.000265   -0.000155
    0.000311   -0.000211    0.000357   -0.000275    0.000403   -0.000309
    0.000448   -0.000343    0.001853   -0.000377    0.002021   -0.000411
    0.002187   -0.000444    0.002347   -0.000477    0.002505   -0.000511
    0.002658   -0.000544    0.002809   -0.000578    0.002661   -0.000612
    0.002790   -0.000645    0.002919   -0.000679    0.003042   -0.000714
    0.003160   -0.000749    0.003278   -0.000785    0.004629   -0.000822
    0.004774   -0.000860    0.004913   -0.000902    0.005052   -0.000945
    0.005185   -0.000992
   1.0069569  -0.0000417   0.0060544   1.0000004      -0.197      -0.344
   1.0070350  -0.0002850   0.0052869   1.0000762      -0.312      -0.482
   1.0015116  -0.0005306   0.0046228   1.0001514       0.076      -0.411
   1.0015855  -0.0007750   0.0041333   1.0002260      -0.074      -0.386
   1.0016624  -0.0010195   0.0037408   1.0003008      -0.153      -0.295
   1.0017378  -0.0012641   0.0034166   1.0003746      -0.129      -0.276
   0.9999687  -0.0015048   0.0031499   1.0004485      -0.098      -0.176
   1.0000738  -0.0015836   0.0027638   1.0005504      -0.044      -0.147
   1.0001789  -0.0016625   0.0024187   1.0006534      -0.224      -0.156
   1.0002837  -0.0017413   0.0021071   1.0007553      -0.255      -0.078
   1.0003884  -0.0018201   0.0018241   1.0008574      -0.193      -0.099
   1.0009600  -0.0019015   0.0020674   1.0009587      -0.320      -0.071
   1.0010639  -0.0019805   0.0023020   1.0010612      -0.259      -0.107
   1.0011679  -0.0018755   0.0023437   1.0011640      -0.157      -0.091
   1.0010611  -0.0017701   0.0023771   1.0010562      -0.182      -0.106
   1.0009540  -0.0016647   0.0024035   1.0009482      -0.176      -0.157
   1.0008464  -0.0015594   0.0024244   1.0008397      -0.067      -0.171
   1.0027642  -0.0014543   0.0024452   1.0007322      -0.227      -0.149
   1.0026562  -0.0013490   0.0024584   1.0006239      -0.200      -0.163
   1.0025488  -0.0013085   0.0025333   1.0005155      -0.254      -0.104
   1.0024424  -0.0012681   0.0026060   1.0004072      -0.300      -0.157
   1.0023644  -0.0012277   0.0027261   1.0003283      -0.320      -0.151
   1.0022837  -0.0011873   0.0028431   1.0002491      -0.332      -0.163
   1.0022047  -0.0011470   0.0029580   1.0001700      -0.276      -0.289
   1.0021243  -0.0011067   0.0030713   1.0000911      -0.285      -0.296
   1.0003136  -0.0009579   0.0030761   1.0000123      -0.163      -0.394
   1.0002342  -0.0008106   0.0030819   0.9999337      -0.084      -0.355
   1.0001546  -0.0006635   0.0030878   0.9998549      -0.043      -0.356
   1.0004978  -0.0005164   0.0030958   1.0001992      -0.104      -0.343
   1.0008417  -0.0003694   0.0031052   1.0005440      -0.199      -0.320
   1.0011858  -0.0002222   0.0031164   1.0008887      -0.144      -0.293
   1.0015298  -0.0001821   0.0029962   1.0012332      -0.207      -0.267
   1.0018736  -0.0001419   0.0028798   1.0015775      -0.208      -0.253
   1.0022185  -0.0001017   0.0027669   1.0019225      -0.269      -0.129
   1.0012100  -0.0000615   0.0026558   1.0018134      -0.175      -0.126
   1.0011004  -0.0000213   0.0025480   1.0017037      -0.066      -0.196
   1.0009904   0.0000189   0.0024431   1.0015934      -0.050      -0.196
   1.0008801   0.0002021   0.0021967   1.0014833       0.014      -0.210
   1.0007706   0.0003853   0.0019525   1.0013744      -0.037      -0.103
   1.0006607   0.0005684   0.0017103   1.0012649      -0.001       0.017
   1.0005509   0.0007515   0.0014697   1.0011562       0.059       0.031
   1.0004694   0.0009346   0.0013990   1.0010755       0.121      -0.060
   1.0003873   0.0011176   0.0013334   1.0009943       0.106      -0.074
   1.0022918   0.0009219   0.0016589   1.0009128      -0.053      -0.155
   1.0022106   0.0007281   0.0019859   1.0008303      -0.069      -0.151
   1.0021290   0.0005344   0.0023202   1.0007474      -0.006      -0.176
   1.0020478   0.0003407   0.0026631   1.0006647      -0.043      -0.205
   1.0019674   0.0001471   0.0030151   1.0005822      -0.068      -0.248
   1.0019195  -0.0000465   0.0033775   1.0005329      -0.076      -0.295
   1.0018712   0.0000642   0.0034443   1.0004851      -0.076      -0.301
   1.0023367   0.0001750   0.0035221   1.0004368      -0.063      -0.273
   1.0022883   0.0002858   0.0035942   1.0003890      -0.153      -0.333
   1.0022402   0.0003966   0.0036807   1.0003414      -0.113      -0.285
   1.0021911   0.0005073   0.0037833   1.0002935      -0.019      -0.345
   1.0021427   0.0006181   0.0039026   1.0002460       0.060      -0.389
   1.0021588   0.0008689   0.0039020   1.0002620       0.011      -0.304
   1.0051808   0.0011211   0.0039318   1.0002778      -0.216      -0.280
   1.0051959   0.0013722   0.0039842   1.0002941      -0.132      -0.278
   1.0052062   0.0016233   0.0040727   1.0003101      -0.044      -0.271
   1.0052235   0.0018745   0.0041998   1.0003264      -0.123      -0.327
   1.0052409   0.0021256   0.0043720   1.0003433      -0.119      -0.316
  -0.10  -0.05   0.00   0.05   0.04   0.04   0.03   0.03   0.00  -0.03
  -0.06  -0.09  -0.13  -0.15  -0.17  -0.19  -0.21  -0.23  -0.20  -0.17
  -0.14  -0.11  -0.07  -0.04  -0.01  -0.02  -0.03  -0.04  -0.05  -0.06
  -0.07  -0.08  -0.06  -0.03   0.00   0.03   0.05   0.08   0.11   0.08
   0.06   0.03   0.01  -0.02  -0.04  -0.07  -0.06  -0.04  -0.03  -0.02
   0.00   0.01   0.04   0.07   0.10   0.12   0.15   0.12   0.09   0.05
   0.02
   -0.002914   -0.005835   -0.002867   -0.004806   -0.001903   -0.003927
   -0.001866   -0.003179   -0.001828   -0.002522   -0.001786   -0.001950
   -0.002469   -0.001448   -0.002401   -0.001010   -0.002333   -0.000626
   -0.002258   -0.000291   -0.002182    0.000000    0.000000    0.000497
    0.000000    0.000926    0.000001    0.001293    0.000001    0.001603
    0.000002    0.001857    0.000003    0.002061    0.000243    0.002218
    0.000229    0.002335    0.000216    0.002412    0.000202    0.002450
    0.000186    0.002270    0.000171    0.002089    0.000155    0.001905
    0.000139    0.001718    0.000013    0.001534    0.000011    0.001347
    0.000010    0.001155    0.000008    0.000959    0.000006    0.000758
    0.000005    0.000551    0.000003    0.000320    0.000001    0.000095
   -0.000001   -0.000128    0.000233   -0.000351    0.000381   -0.000573
    0.000528   -0.000794    0.000669   -0.001009    0.000810   -0.001224
    0.000953   -0.001447    0.001096   -0.001671    0.001238   -0.001969
    0.001378   -0.002287    0.002638   -0.002633    0.002878   -0.003002
    0.003115   -0.003398    0.003344   -0.003816    0.003570   -0.004264
    0.003789   -0.004743    0.004003   -0.005259    0.002006   -0.005813
    0.002105   -0.006006    0.002201   -0.006183    0.002293   -0.006344
    0.002381   -0.006486    0.002469   -0.006614   -0.001274   -0.006727
   -0.001313   -0.006844   -0.001349   -0.006955   -0.001386   -0.007051
   -0.001421   -0.007133
   1.0000871   0.0018700  -0.0039990   0.9999823      -0.028      -0.115
   1.0000588   0.0017660  -0.0035367   0.9999601       0.079      -0.127
   1.0032974   0.0016691  -0.0031239   0.9999372       0.139      -0.161
   1.0032679   0.0015648  -0.0027586   0.9999140       0.122      -0.094
   1.0032440   0.0014603  -0.0024294   0.9998903       0.157      -0.094
   1.0032165   0.0013559  -0.0021238   0.9998662       0.108      -0.063
   1.0016171   0.0012484  -0.0018390   0.9998418       0.103       0.028
   1.0016986   0.0010098  -0.0014340   0.9999261       0.201      -0.029
   1.0017830   0.0007711  -0.0010434   1.0000103       0.108      -0.078
   1.0018648   0.0005324  -0.0006643   1.0000937       0.121      -0.090
   1.0019473   0.0002936  -0.0002949   1.0001770       0.119       0.029
   1.0002594   0.0000549  -0.0003603   1.0002596       0.089       0.064
   1.0003425  -0.0001843  -0.0004073   1.0003425       0.045       0.042
   1.0004259  -0.0006816  -0.0001801   1.0004245       0.086      -0.043
   1.0006210  -0.0011790   0.0000611   1.0006175       0.112      -0.022
   1.0008161  -0.0016767   0.0003151   1.0008098       0.157       0.015
   1.0010109  -0.0021745   0.0005793   1.0010011       0.114       0.126
   1.0008739  -0.0026730   0.0008517   1.0011933       0.176       0.114
   1.0010688  -0.0031713   0.0011291   1.0013837       0.149       0.089
   1.0012623  -0.0027223   0.0004653   1.0015799       0.257       0.072
   1.0014552  -0.0022731  -0.0001944   1.0017766       0.242       0.054
   1.0018022  -0.0018240  -0.0007610   1.0021290       0.171       0.070
   1.0021471  -0.0013746  -0.0013276   1.0024786       0.043      -0.002
   1.0024933  -0.0009249  -0.0018947   1.0028296       0.145      -0.130
   1.0028377  -0.0004749  -0.0024626   1.0031787       0.141      -0.206
   1.0023047  -0.0009326  -0.0021244   1.0035281       0.075      -0.125
   1.0026542  -0.0013913  -0.0017864   1.0038744       0.094      -0.111
   1.0030023  -0.0018503  -0.0014498   1.0042191       0.146      -0.068
   1.0026151  -0.0023079  -0.0011146   1.0038279       0.159      -0.053
   1.0022287  -0.0027652  -0.0007822   1.0034381       0.101      -0.096
   1.0018418  -0.0032221  -0.0004531   1.0030475       0.037      -0.096
   1.0014526  -0.0029409  -0.0006629   1.0026603      -0.023      -0.107
   1.0010628  -0.0026600  -0.0008775   1.0022722       0.001      -0.127
   1.0006733  -0.0023792  -0.0010963   1.0018851       0.034      -0.173
   1.0038842  -0.0020974  -0.0013248   1.0016142       0.197      -0.173
   1.0036106  -0.0018175  -0.0015526   1.0013423       0.196      -0.211
   1.0033360  -0.0015378  -0.0017839   1.0010699       0.283      -0.204
   1.0030636  -0.0018403  -0.0014322   1.0007948       0.252      -0.126
   1.0027933  -0.0021426  -0.0010840   1.0005202       0.236      -0.101
   1.0025222  -0.0024449  -0.0007404   1.0002453       0.187      -0.045
   1.0022525  -0.0027469  -0.0004001   0.9999704       0.132       0.007
   1.0020330  -0.0030489  -0.0002677   0.9997458       0.104       0.019
   1.0018126  -0.0033508  -0.0001430   0.9995208       0.068       0.030
   1.0029256  -0.0035389  -0.0001366   0.9992959       0.169       0.019
   1.0027045  -0.0037330  -0.0001399   0.9990713       0.042      -0.030
   1.0024829  -0.0039270  -0.0001546   0.9988468       0.027       0.047
   1.0022624  -0.0041209  -0.0001791   0.9986217       0.055       0.068
   1.0020427  -0.0043147  -0.0002169   0.9983961      -0.003       0.001
   1.0021497  -0.0045099  -0.0002697   0.9985001       0.075       0.055
   1.0022550  -0.0043186  -0.0007300   0.9986075       0.080       0.027
   0.9995338  -0.0041315  -0.0012045   0.9987162       0.029       0.015
   0.9996406  -0.0039399  -0.0010589   0.9988234       0.092       0.000
   0.9997478  -0.0037482  -0.0008988   0.9989307       0.082       0.008
   0.9998549  -0.0035565  -0.0007229   0.9990383       0.032       0.059
   0.9999616  -0.0033648  -0.0005269   0.9991456       0.139       0.039
   1.0006323  -0.0029392  -0.0005469   0.9998211       0.242       0.017
   0.9973650  -0.0025163  -0.0005388   1.0004975      -0.050       0.031
   0.9980364  -0.0020889  -0.0005156   1.0011746       0.109       0.101
   0.9987088  -0.0016610  -0.0004597   1.0018502       0.021       0.065
   0.9993795  -0.0012326  -0.0003625   1.0025283       0.000       0.007
   1.0000510  -0.0008035  -0.0002156   1.0032078      -0.030      -0.009
   0.04   0.10   0.15   0.21   0.14   0.07   0.00  -0.07  -0.04  -0.02
   0.00   0.03   0.05   0.06   0.07   0.08   0.09   0.10   0.10   0.10
   0.10   0.10   0.10   0.10   0.10   0.10   0.10   0.09   0.09   0.09
   0.08   0.08   0.08   0.09   0.09   0.09   0.09   0.10   0.10   0.10
   0.09   0.09   0.08   0.08   0.07   0.07   0.08   0.09   0.10   0.11
   0.11   0.12   0.10   0.07   0.04   0.01  -0.02   0.02   0.06   0.10
   0.14
   -0.004680   -0.008830   -0.004607   -0.007273   -0.001394   -0.005943
   -0.001368   -0.004810   -0.001340   -0.003806   -0.001309   -0.002936
    0.000635   -0.002175    0.000617   -0.001514    0.000600   -0.000940
    0.000581   -0.000438    0.000562    0.000000    0.000000    0.000541
    0.000000    0.001010    0.000001    0.001412    0.000002    0.001753
    0.000002    0.002033    0.000003    0.002260    0.000747    0.002436
    0.000703    0.002564    0.000658    0.002645    0.000613    0.002685
    0.000565    0.002247    0.000516    0.001853    0.000467    0.001502
    0.000417    0.001192    0.000321    0.000926    0.000279    0.000696
    0.000237    0.000500    0.000195    0.000337    0.000153    0.000207
    0.000111    0.000109    0.000066    0.000065    0.000022    0.000021
   -0.000023   -0.000022   -0.000089   -0.000067   -0.000148   -0.000111
   -0.000206   -0.000156   -0.000262   -0.000200   -0.000318   -0.000244
   -0.000374   -0.000290   -0.000429   -0.000336   -0.000485   -0.000425
   -0.000539   -0.000525    0.000108   -0.000638    0.000118   -0.000764
    0.000127   -0.000904    0.000137   -0.001057    0.000146   -0.001226
    0.000155   -0.001412    0.000163   -0.001615   -0.000461   -0.001837
   -0.000483   -0.002020   -0.000506   -0.002220   -0.000528   -0.002434
   -0.000548   -0.002664   -0.000569   -0.002914   -0.000922   -0.003185
   -0.000951   -0.003475   -0.000978   -0.003797   -0.001006   -0.004151
   -0.001032   -0.004544
   1.0020063  -0.0022302   0.0034392   1.0000166       0.035      -0.361
   1.0019943  -0.0024016   0.0034318   0.9999986      -0.090      -0.496
   1.0027031  -0.0025840   0.0034319   0.9999805       0.145      -0.408
   1.0026877  -0.0027561   0.0034623   0.9999627       0.176      -0.393
   1.0026767  -0.0029282   0.0034906   0.9999447       0.071      -0.334
   1.0026629  -0.0031002   0.0035386   0.9999266       0.027      -0.302
   0.9977729  -0.0032642   0.0035934   0.9999084       0.202      -0.342
   0.9976771  -0.0029131   0.0031465   0.9998058       0.128      -0.347
   0.9975767  -0.0025622   0.0027125   0.9997034       0.176      -0.236
   0.9974796  -0.0022113   0.0022844   0.9996016       0.140      -0.118
   0.9973812  -0.0018605   0.0018614   0.9995004       0.147      -0.074
   0.9994013  -0.0015117   0.0011435   0.9993995       0.039       0.063
   0.9993013  -0.0011606   0.0004463   0.9992990       0.097       0.040
   0.9992007  -0.0013047   0.0002639   0.9991972       0.159       0.029
   0.9991578  -0.0014487   0.0000982   0.9991531       0.268      -0.010
   0.9991144  -0.0015928  -0.0000523   0.9991089       0.292       0.047
   0.9990720  -0.0017369  -0.0001906   0.9990653       0.216       0.030
   0.9977248  -0.0018812  -0.0003180   0.9990205       0.361       0.080
   0.9976822  -0.0020253  -0.0004365   0.9989766       0.394       0.111
   0.9976382  -0.0019984  -0.0007187   0.9989332       0.368       0.190
   0.9975931  -0.0019714  -0.0009954   0.9988893       0.356       0.204
   0.9978794  -0.0019452  -0.0005206   0.9991756       0.227       0.163
   0.9981681  -0.0019189  -0.0000633   0.9994630       0.152       0.029
   0.9984553  -0.0018926   0.0003789   0.9997499       0.194      -0.055
   0.9987434  -0.0018663   0.0008084   1.0000368       0.194      -0.130
   0.9979011  -0.0014016   0.0007913   1.0003259       0.224      -0.144
   0.9981875  -0.0009390   0.0007654   1.0006146       0.205      -0.181
   0.9984743  -0.0004763   0.0007327   1.0009027       0.187      -0.187
   0.9981969  -0.0000133   0.0006942   1.0006264       0.245      -0.151
   0.9979186   0.0004495   0.0006521   1.0003501       0.242      -0.078
   0.9976403   0.0009120   0.0006077   1.0000733       0.181      -0.052
   0.9973629   0.0005939   0.0009609   0.9997946       0.136      -0.049
   0.9970865   0.0002760   0.0013158   0.9995162       0.173      -0.088
   0.9968080  -0.0000418   0.0016725   0.9992369       0.284      -0.101
   0.9955362  -0.0003592   0.0020307   0.9991440       0.439      -0.100
   0.9954449  -0.0006765   0.0023918   0.9990511       0.476      -0.199
   0.9953548  -0.0009939   0.0027554   0.9989582       0.491      -0.248
   0.9952651  -0.0008655   0.0026754   0.9988673       0.482      -0.254
   0.9951729  -0.0007372   0.0025982   0.9987759       0.431      -0.192
   0.9950811  -0.0006089   0.0025239   0.9986844       0.466      -0.181
   0.9949877  -0.0004806   0.0024526   0.9985926       0.480      -0.146
   0.9951329  -0.0003526   0.0022768   0.9987411       0.425      -0.172
   0.9952798  -0.0002244   0.0021020   0.9988903       0.417      -0.165
   0.9955900  -0.0002669   0.0021042   0.9990384       0.357      -0.184
   0.9957392  -0.0003098   0.0021033   0.9991875       0.311      -0.195
   0.9958892  -0.0003528   0.0021033   0.9993370       0.295      -0.188
   0.9960374  -0.0003957   0.0021044   0.9994858       0.276      -0.168
   0.9961846  -0.0004387   0.0021060   0.9996349       0.277      -0.203
   0.9960514  -0.0004815   0.0021076   0.9995001       0.257      -0.208
   0.9959180  -0.0005798   0.0021653   0.9993651       0.218      -0.195
   0.9957119  -0.0006787   0.0022207   0.9992311       0.225      -0.204
   0.9955788  -0.0007770   0.0023535   0.9990961       0.189      -0.240
   0.9954457  -0.0008753   0.0024885   0.9989614       0.249      -0.226
   0.9953149  -0.0009736   0.0026272   0.9988269       0.259      -0.269
   0.9951826  -0.0010718   0.0027693   0.9986922       0.321      -0.223
   0.9953789  -0.0008436   0.0025896   0.9988944       0.256      -0.142
   0.9964192  -0.0006162   0.0024141   0.9990978       0.215      -0.150
   0.9966202  -0.0003875   0.0022522   0.9993017       0.092      -0.187
   0.9968231  -0.0001588   0.0021003   0.9995059       0.074      -0.190
   0.9970220   0.0000701   0.0019586   0.9997095      -0.109      -0.175
   0.9972211   0.0002990   0.0018290   0.9999139      -0.136      -0.192
