   0.9787406  -0.1898027   0.1861717   0.9824202     -20.199       1.220
   0.9795379  -0.1893264   0.1870661   0.9829500     -17.984       0.271
   0.9844260  -0.1900881   0.1881964   0.9833791     -13.354      -1.040
   0.9838879  -0.1896458   0.1887821   0.9826420     -12.470       2.975
   0.9848010  -0.1905263   0.1905727   0.9833837      -8.496       2.515
   0.9847982  -0.1900793   0.1909395   0.9832210      -8.476      -1.463
   0.9830941  -0.1888896   0.1909553   0.9838112      -6.239       1.033
   0.9829414  -0.1887807   0.1915134   0.9835299      -7.018       0.920
   0.9840752  -0.1894993   0.1928478   0.9845515      -0.902      -1.002
   0.9837507  -0.1893396   0.1932484   0.9841181      -4.361       1.823
   0.9836546  -0.1892574   0.1936858   0.9839215       0.233       0.974
   0.9841416  -0.1896550   0.1942474   0.9830227      -0.802       4.381
   0.9840811  -0.1905289   0.1955152   0.9828893       5.402       2.571
   0.9842295  -0.1903969   0.1957541   0.9829650       2.123       2.351
   0.9846575  -0.1908956   0.1966076   0.9833250       3.738      -1.804
   0.9851372  -0.1911859   0.1972356   0.9837392       7.139       1.937
   0.9848071  -0.1910084   0.1973764   0.9833466      10.032       0.151
   0.9857763  -0.1915416   0.1981983   0.9841191       7.330       0.381
   0.9855746  -0.1915876   0.1985422   0.9838591       8.893      -0.097
   0.9855888  -0.1916458   0.1988916   0.9838158       9.859      -0.286
   0.9859624  -0.1917094   0.1992430   0.9841323      11.646      -2.920
   0.9866124  -0.1919729   0.1994196   0.9847991      10.895       0.430
   0.9860300  -0.1922635   0.1996212   0.9842349      10.802      -0.834
   0.9861661  -0.1926424   0.1999226   0.9843865      11.999      -2.185
   0.9856763  -0.1929999   0.2002040   0.9839123      11.861      -0.027
   0.9853048  -0.1924037   0.1998009   0.9848523      14.575      -3.881
   0.9850239  -0.1930836   0.2004188   0.9845844      15.783       1.548
   0.9844809  -0.1935792   0.2008541   0.9840532      13.545       2.532
   0.9844110  -0.1938017   0.2010229   0.9839943      13.160      -0.410
   0.9847298  -0.1942566   0.2014312   0.9843238       2.077      12.556
   0.9849946  -0.1945836   0.2017144   0.9845985      20.795      -5.303
   0.9851771  -0.1946730   0.2018400   0.9847742       6.031      -4.168
   0.9848531  -0.1955268   0.2027323   0.9844435      23.542       0.329
   0.9853041  -0.1953742   0.2026240   0.9848861      12.264      -1.447
   0.9849904  -0.1951050   0.2025571   0.9853415       8.912      -1.822
   0.9849361  -0.1954761   0.2029784   0.9852777      12.232       0.250
   0.9846192  -0.1956463   0.2032001   0.9849496       7.967      -1.169
   0.9842282  -0.1954959   0.2031030   0.9845461      10.457      -0.591
   0.9843505  -0.1957601   0.2034303   0.9846568      12.038       0.897
   0.9842980  -0.1961252   0.2038619   0.9845914       7.462      -1.740
   0.9847117  -0.1963794   0.2041904   0.9849921       6.270      -1.821
   0.9854197  -0.1964447   0.2043681   0.9856800       5.606      -0.194
   0.9857901  -0.1966149   0.2046547   0.9860286       7.177       0.119
   0.9847943  -0.1975835   0.2061091   0.9867752       2.885      -1.246
   0.9847744  -0.1973915   0.2060443   0.9867290       1.580       0.296
   0.9846975  -0.1967856   0.2055713   0.9866234       0.444      -1.932
   0.9847968  -0.1968076   0.2057407   0.9866938       1.677      -3.229
   0.9853690  -0.1962850   0.2053770   0.9872374       0.961       2.449
   0.9851232  -0.1968129   0.2060739   0.9869566      -2.654      -1.373
   0.9848364  -0.1976334   0.2070776   0.9866318     -11.287      -0.967
   0.9846099  -0.1981952   0.2076223   0.9853521      -4.623       0.385
   0.9845294  -0.1980965   0.2077079   0.9852339      -5.474      -0.694
   0.9843594  -0.1986427   0.2084568   0.9850221     -10.916      -1.182
   0.9838279  -0.1987030   0.2087313   0.9844442      -8.158      -1.858
   0.9835981  -0.1988222   0.2090857   0.9841653     -11.728       3.438
   0.9845886  -0.1990088   0.2095427   0.9851065     -15.755       1.482
   0.9862321  -0.1991642   0.2097283   0.9854135     -16.763      -0.534
   0.9865240  -0.1986522   0.2095338   0.9856429     -14.666      -0.850
   0.9857239  -0.1993970   0.2106275   0.9847682     -14.725      -1.395
   0.9861764  -0.2006641   0.2122999   0.9851369     -19.441      -0.665
   0.9867799  -0.2012858   0.2133751   0.9856483     -23.513       1.859
