  64.89
  62.91
  60.93
  58.94
  56.95
  54.96
  52.92
  50.89
  48.86
  46.83
  44.86
  42.89
  40.92
  38.95
  36.97
  34.93
  32.89
  30.85
  28.81
  26.77
  24.74
  22.71
  20.68
  18.65
  16.62
  14.68
  12.75
  10.81
   8.87
   6.94
   5.00
   2.96
   0.92
  -1.12
  -3.16
  -5.20
  -7.24
  -9.21
 -11.17
 -13.14
 -15.09
 -17.07
 -19.03
 -21.03
 -23.04
 -25.04
 -27.05
 -29.05
 -31.06
 -33.09
 -35.12
 -37.15
 -39.18
 -41.20
 -43.19
 -45.17
 -47.16
 -49.16
 -51.18
 -53.19
 -55.21
