   0.9798208  -0.1998804   0.1998804   0.9798208     -30.374       0.805
   0.9797168  -0.2008082   0.2008082   0.9797168     -27.891      -0.061
   0.9796352  -0.2025308   0.2025308   0.9796351     -22.948      -1.378
   0.9792712  -0.2039080   0.2039080   0.9792712     -21.972       2.652
   0.9791289  -0.2053405   0.2053405   0.9791289     -17.695       2.225
   0.9790447  -0.2064568   0.2064568   0.9790448     -17.455      -1.737
   0.9789924  -0.2074293   0.2074293   0.9789924     -15.042       0.813
   0.9789775  -0.2083664   0.2083664   0.9789775     -15.601       0.742
   0.9788963  -0.2094319   0.2094319   0.9788963      -9.143      -1.090
   0.9790766  -0.2105969   0.2105969   0.9790766     -12.351       1.637
   0.9789099  -0.2115179   0.2115179   0.9789099      -7.445       0.791
   0.9788406  -0.2121746   0.2121746   0.9788406      -8.270       4.238
   0.9787691  -0.2126314   0.2126314   0.9787691      -1.672       2.529
   0.9787273  -0.2130216   0.2130216   0.9787272      -4.609       2.320
   0.9789319  -0.2134605   0.2134605   0.9789318      -2.643      -1.758
   0.9790887  -0.2137649   0.2137649   0.9790886       0.918       1.960
   0.9785415  -0.2136098   0.2136098   0.9785415       4.165       0.192
   0.9783659  -0.2136851   0.2136851   0.9783659       1.705       0.335
   0.9785908  -0.2138471   0.2138471   0.9785908       3.562      -0.036
   0.9783767  -0.2137726   0.2137726   0.9783767       4.879      -0.058
   0.9781263  -0.2135983   0.2135983   0.9781263       7.008      -2.663
   0.9779724  -0.2134254   0.2134254   0.9779724       6.525       0.643
   0.9778438  -0.2132334   0.2132334   0.9778438       6.830      -0.675
   0.9779027  -0.2131573   0.2131573   0.9779027       8.479      -1.945
   0.9778705  -0.2129899   0.2129899   0.9778705       8.596       0.164
   0.9774785  -0.2125970   0.2125970   0.9774785      11.749      -3.608
   0.9773729  -0.2124872   0.2124872   0.9773729      13.156       1.828
   0.9771772  -0.2115385   0.2115385   0.9771772      11.306       2.774
   0.9770077  -0.2115804   0.2115804   0.9770076      11.389      -0.203
   0.9770824  -0.2118467   0.2118467   0.9770824       0.500      12.623
   0.9770896  -0.2118653   0.2118653   0.9770896      19.775      -4.793
   0.9771959  -0.2119113   0.2119113   0.9771959       5.441      -3.968
   0.9770472  -0.2118107   0.2118107   0.9770471      23.133       0.665
   0.9768522  -0.2118567   0.2118567   0.9768522      12.379      -1.203
   0.9765370  -0.2129763   0.2129763   0.9765370       9.461      -1.672
   0.9763053  -0.2135776   0.2135776   0.9763052      13.066       0.381
   0.9759135  -0.2136173   0.2136173   0.9759135       9.113      -0.899
   0.9756798  -0.2142877   0.2142877   0.9756798      11.992      -0.377
   0.9754149  -0.2150516   0.2150516   0.9754149      13.920       1.134
   0.9750849  -0.2158128   0.2158128   0.9750849       9.820      -1.508
   0.9746452  -0.2165093   0.2165093   0.9746452       9.027      -1.636
   0.9743447  -0.2172489   0.2172489   0.9743448       8.583      -0.058
   0.9740497  -0.2178575   0.2178575   0.9740497      10.463       0.192
   0.9740586  -0.2192686   0.2192686   0.9740586       6.586      -1.230
   0.9739557  -0.2200425   0.2200425   0.9739558       5.624       0.243
   0.9737328  -0.2210336   0.2210336   0.9737328       4.899      -1.913
   0.9734524  -0.2219949   0.2219949   0.9734524       6.479      -3.140
   0.9733100  -0.2229809   0.2229809   0.9733100       5.878       2.394
   0.9731854  -0.2236600   0.2236600   0.9731854       2.758      -1.440
   0.9730962  -0.2244317   0.2244317   0.9730962      -5.539      -1.180
   0.9729446  -0.2251786   0.2251786   0.9729446       1.336       0.385
   0.9729699  -0.2260389   0.2260389   0.9729699       0.787      -0.783
   0.9727375  -0.2265545   0.2265545   0.9727375      -4.325      -1.374
   0.9726722  -0.2273930   0.2273931   0.9726722      -1.374      -2.081
   0.9723950  -0.2282694   0.2282694   0.9723950      -4.884       3.074
   0.9721580  -0.2292300   0.2292300   0.9721580      -8.624       1.022
   0.9716898  -0.2303006   0.2303006   0.9716898      -9.287      -0.915
   0.9711930  -0.2310843   0.2310843   0.9711929      -6.984      -1.203
   0.9707304  -0.2319007   0.2319007   0.9707303      -6.787      -1.677
   0.9702927  -0.2327547   0.2327547   0.9702927     -11.167      -0.988
   0.9702404  -0.2340274   0.2340274   0.9702404     -15.144       1.390
