   0.9723324  -0.2051484   0.2071565   0.9783086      -1.527      -9.281
   0.9713581  -0.2067972   0.2086977   0.9773479       0.709      -8.761
   0.9759472  -0.2079471   0.2088826   0.9778956       3.302      -2.023
   0.9765733  -0.2070201   0.2078669   0.9785431       4.782      -0.324
   0.9773215  -0.2060799   0.2068479   0.9793105       6.022      -0.561
   0.9773712  -0.2061929   0.2068918   0.9793751       5.945      -1.978
   0.9795943  -0.2072424   0.2072646   0.9787044       5.647      -3.170
   0.9797979  -0.2069272   0.2068928   0.9789198       2.919       1.177
   0.9811422  -0.2067684   0.2066819   0.9802729       7.522      -0.605
   0.9813971  -0.2073189   0.2071838   0.9805374       7.002      -3.664
   0.9806518  -0.2080089   0.2078288   0.9798025       6.604       1.373
   0.9802059  -0.2076378   0.2077636   0.9801793       8.354      -0.361
   0.9794850  -0.2075251   0.2077690   0.9794333      10.198       0.368
   0.9796497  -0.2073091   0.2076648   0.9795743       8.621       0.056
   0.9803513  -0.2060941   0.2065563   0.9802540       4.754      -4.972
   0.9806003  -0.2054109   0.2059743   0.9804822       5.085       4.566
   0.9807903  -0.2060403   0.2067010   0.9806513       9.181       1.548
   0.9799896  -0.2061437   0.2071138   0.9808557       3.666       1.097
   0.9801128  -0.2061666   0.2072276   0.9809600       4.913       1.587
   0.9799175  -0.2068591   0.2080088   0.9807452       8.092       3.245
   0.9808395  -0.2070685   0.2083062   0.9816506       7.173      -2.872
   0.9812100  -0.2064862   0.2078644   0.9819925       6.200       1.460
   0.9810075  -0.2061255   0.2076408   0.9817608       6.405      -0.738
   0.9805802  -0.2063969   0.2080476   0.9813037       6.735      -0.824
   0.9803657  -0.2069782   0.2087634   0.9810593       6.934       0.398
   0.9814978  -0.2068834   0.2088094   0.9821928       7.108      -2.215
   0.9811810  -0.2063483   0.2084057   0.9818481       6.675       2.011
   0.9812578  -0.2061720   0.2083622   0.9818971       5.712       2.427
   0.9808808  -0.2062479   0.2085706   0.9814909       5.954       2.396
   0.9808501  -0.2067396   0.2091971   0.9814305      -2.728      18.961
   0.9808726  -0.2061012   0.2086940   0.9814254      10.756      -6.951
   0.9810941  -0.2060855   0.2090873   0.9815606       0.754      -1.262
   0.9812019  -0.2062222   0.2096347   0.9815806       7.465      -0.467
   0.9811967  -0.2061864   0.2100122   0.9814871       5.074      -1.817
   0.9805603  -0.2065718   0.2111193   0.9821823       0.830       0.491
   0.9806398  -0.2058753   0.2108457   0.9821738       3.819       1.282
   0.9809914  -0.2055735   0.2109770   0.9824358       0.473       0.125
   0.9803677  -0.2059320   0.2117746   0.9817124       4.267       0.252
   0.9801179  -0.2061210   0.2124151   0.9813629       3.723       0.322
   0.9804473  -0.2051136   0.2118728   0.9815994       1.156       1.065
   0.9809740  -0.2050047   0.2122478   0.9820261       3.003      -0.327
   0.9816469  -0.2060279   0.2133124   0.9826890      -0.829       0.718
   0.9818564  -0.2059464   0.2132742   0.9828913       0.478      -0.684
   0.9813019  -0.2062098   0.2137420   0.9830424       0.235       1.051
   0.9807459  -0.2059175   0.2135058   0.9824721      -3.196       1.494
   0.9807695  -0.2064504   0.2141117   0.9824777      -3.775      -2.431
   0.9807241  -0.2061049   0.2138465   0.9824173      -2.281       0.931
   0.9805721  -0.2057299   0.2135622   0.9822475      -3.475       3.641
   0.9811752  -0.2054091   0.2133507   0.9828346      -2.719       0.690
   0.9813814  -0.2057037   0.2137643   0.9830159     -11.848      -0.093
   0.9812962  -0.2052716   0.2133761   0.9825104      -7.230      -0.534
   0.9809296  -0.2059165   0.2143971   0.9820570      -5.010       0.064
   0.9807185  -0.2054231   0.2143076   0.9817620     -10.357      -0.300
   0.9810286  -0.2047300   0.2140551   0.9819865      -5.639       0.622
   0.9810567  -0.2046149   0.2144219   0.9819140      -6.273       2.474
   0.9819772  -0.2058447   0.2161916   0.9827172     -14.107      -1.169
   0.9811703  -0.2055332   0.2164794   0.9819429     -11.188      -0.614
   0.9804634  -0.2048738   0.2164384   0.9811059     -11.299       0.712
   0.9809757  -0.2050419   0.2173116   0.9814723     -10.710       1.640
   0.9821050  -0.2048657   0.2179222   0.9824476     -13.260      -0.943
   0.9821967  -0.2046832   0.2185991   0.9823618     -15.055      -0.004
