   0.9820584  -0.1885799   0.1885799   0.9820584     -20.115       1.129
   0.9824169  -0.1892801   0.1892801   0.9824167     -17.866       0.193
   0.9833935  -0.1890149   0.1890149   0.9833935     -13.212      -1.072
   0.9829678  -0.1889599   0.1889599   0.9829679     -12.335       2.961
   0.9840066  -0.1902382   0.1902382   0.9840067      -8.374       2.515
   0.9841171  -0.1902346   0.1902346   0.9841171      -8.363      -1.455
   0.9840355  -0.1899461   0.1899461   0.9840355      -6.156       1.019
   0.9838184  -0.1902659   0.1902659   0.9838183      -6.932       0.928
   0.9851831  -0.1913766   0.1913765   0.9851831      -0.824      -1.009
   0.9849305  -0.1915841   0.1915841   0.9849305      -4.301       1.828
   0.9845850  -0.1919216   0.1919216   0.9845850       0.295       0.967
   0.9842561  -0.1923725   0.1923725   0.9842561      -0.757       4.397
   0.9840327  -0.1935907   0.1935907   0.9840327       5.448       2.569
   0.9840412  -0.1937509   0.1937509   0.9840413       2.158       2.354
   0.9843319  -0.1946051   0.1946051   0.9843320       3.781      -1.810
   0.9847892  -0.1952156   0.1952156   0.9847892       7.163       1.928
   0.9844729  -0.1952999   0.1952999   0.9844729      10.060       0.136
   0.9853590  -0.1961506   0.1961506   0.9853590       7.348       0.377
   0.9851311  -0.1964879   0.1964878   0.9851311       8.908      -0.104
   0.9851571  -0.1968187   0.1968187   0.9851571       9.871      -0.294
   0.9855399  -0.1972053   0.1972053   0.9855399      11.666      -2.932
   0.9862100  -0.1975124   0.1975124   0.9862100      10.899       0.425
   0.9856548  -0.1978416   0.1978416   0.9856548      10.814      -0.837
   0.9858084  -0.1982792   0.1982792   0.9858085      12.020      -2.190
   0.9853485  -0.1986746   0.1986746   0.9853485      11.870      -0.028
   0.9854746  -0.1983589   0.1983589   0.9854746      14.611      -3.910
   0.9852087  -0.1990807   0.1990807   0.9852087      15.789       1.521
   0.9846606  -0.1996163   0.1996163   0.9846606      13.542       2.510
   0.9846260  -0.1998718   0.1998718   0.9846260      13.174      -0.431
   0.9849766  -0.2003578   0.2003578   0.9849766       1.999      12.555
   0.9852624  -0.2007168   0.2007169   0.9852624      20.852      -5.332
   0.9854633  -0.2008977   0.2008977   0.9854633       6.056      -4.180
   0.9850385  -0.2018162   0.2018162   0.9850385      23.571       0.320
   0.9856482  -0.2017690   0.2017690   0.9856482      12.279      -1.460
   0.9856231  -0.2017276   0.2017276   0.9856231       8.919      -1.846
   0.9856084  -0.2021846   0.2021846   0.9856084      12.232       0.226
   0.9853387  -0.2024364   0.2024365   0.9853387       7.965      -1.189
   0.9850013  -0.2023621   0.2023621   0.9850013      10.454      -0.610
   0.9851758  -0.2027107   0.2027107   0.9851757      12.027       0.879
   0.9852016  -0.2031565   0.2031565   0.9852016       7.455      -1.753
   0.9856801  -0.2034913   0.2034913   0.9856801       6.256      -1.831
   0.9864703  -0.2036592   0.2036592   0.9864704       5.577      -0.199
   0.9869277  -0.2039212   0.2039212   0.9869277       7.146       0.115
   0.9866634  -0.2053594   0.2053594   0.9866634       2.840      -1.277
   0.9867515  -0.2052640   0.2052640   0.9867515       1.515       0.269
   0.9867884  -0.2047442   0.2047442   0.9867884       0.386      -1.952
   0.9870085  -0.2048695   0.2048695   0.9870084       1.629      -3.247
   0.9877099  -0.2044369   0.2044369   0.9877098       0.863       2.438
   0.9875892  -0.2050610   0.2050610   0.9875892      -2.742      -1.378
   0.9872670  -0.2059807   0.2059807   0.9872670     -11.422      -0.961
   0.9865353  -0.2064057   0.2064057   0.9865353      -4.741       0.403
   0.9863906  -0.2063831   0.2063831   0.9863906      -5.592      -0.676
   0.9861439  -0.2070093   0.2070093   0.9861439     -11.057      -1.156
   0.9855317  -0.2071418   0.2071418   0.9855317      -8.291      -1.839
   0.9852981  -0.2072213   0.2072213   0.9852981     -11.931       3.474
   0.9861902  -0.2075669   0.2075669   0.9861903     -15.952       1.522
   0.9870640  -0.2074706   0.2074706   0.9870640     -16.934      -0.471
   0.9872827  -0.2070005   0.2070005   0.9872826     -14.835      -0.790
   0.9863387  -0.2077677   0.2077677   0.9863387     -14.882      -1.320
   0.9869599  -0.2090301   0.2090301   0.9869598     -19.635      -0.574
   0.9876181  -0.2096265   0.2096265   0.9876181     -23.744       1.981
