     2     2   203   202   109   108     0    20.20000   0
  -0.16  -0.16  -0.16  -0.16  -0.16  -0.16  -0.16  -0.16  -0.16  -0.16
  -0.16  -0.16  -0.16  -0.16  -0.16  -0.16  -0.16  -0.16  -0.16  -0.16
  -0.16  -0.16  -0.16  -0.16  -0.16  -0.16  -0.16  -0.16  -0.16  -0.16
  -0.16  -0.16  -0.16  -0.16  -0.16  -0.16  -0.16  -0.16  -0.16  -0.16
  -0.16  -0.16  -0.16  -0.16  -0.16  -0.16  -0.16  -0.16  -0.16  -0.16
  -0.16  -0.16  -0.16  -0.16  -0.16  -0.16  -0.16  -0.16  -0.16  -0.16
  -0.16
   0.9999843   0.0056106  -0.0056106   0.9999843       2.613      -0.192
   0.9999244   0.0043848  -0.0043848   0.9999244       2.392      -0.150
   0.9998631   0.0031591  -0.0031591   0.9998631       2.171      -0.125
   0.9998004   0.0019336  -0.0019336   0.9998004       1.923      -0.094
   0.9997361   0.0007082  -0.0007082   0.9997361       1.684      -0.037
   0.9996701  -0.0005170   0.0005170   0.9996701       1.460       0.021
   0.9996029  -0.0017421   0.0017421   0.9996030       1.285       0.077
   0.9997679  -0.0021746   0.0021746   0.9997679       1.178       0.117
   0.9999325  -0.0026073   0.0026072   0.9999326       1.043       0.165
   1.0000974  -0.0030401   0.0030400   1.0000975       0.922       0.147
   1.0002623  -0.0034730   0.0034730   1.0002623       0.820       0.174
   1.0004265  -0.0039061   0.0039061   1.0004264       0.744       0.213
   1.0005909  -0.0043394   0.0043394   1.0005909       0.669       0.262
   1.0007536  -0.0050715   0.0050715   1.0007535       0.566       0.303
   1.0009128  -0.0058038   0.0058038   1.0009128       0.464       0.348
   1.0010717  -0.0065364   0.0065364   1.0010716       0.373       0.403
   1.0012290  -0.0072692   0.0072692   1.0012290       0.292       0.495
   1.0013860  -0.0080023   0.0080023   1.0013860       0.192       0.544
   1.0015433  -0.0087356   0.0087356   1.0015432       0.069       0.581
   1.0017043  -0.0089185   0.0089185   1.0017043       0.007       0.623
   1.0018650  -0.0091015   0.0091014   1.0018650      -0.036       0.653
   1.0019612  -0.0092839   0.0092839   1.0019612      -0.070       0.663
   1.0020571  -0.0094664   0.0094664   1.0020572      -0.121       0.689
   1.0021536  -0.0096488   0.0096488   1.0021535      -0.162       0.692
   1.0022496  -0.0098313   0.0098313   1.0022496      -0.203       0.684
   1.0023453  -0.0099649   0.0099649   1.0023453      -0.230       0.714
   1.0024418  -0.0100985   0.0100985   1.0024418      -0.273       0.714
   1.0025373  -0.0102321   0.0102320   1.0025374      -0.361       0.779
   1.0025560  -0.0103649   0.0103649   1.0025558      -0.392       0.771
   1.0025755  -0.0104977   0.0104977   1.0025754      -0.424       0.740
   1.0025945  -0.0106305   0.0106305   1.0025945      -0.432       0.739
   1.0026147  -0.0106760   0.0106760   1.0026147      -0.428       0.735
   1.0026344  -0.0107216   0.0107216   1.0026343      -0.421       0.752
   1.0026536  -0.0107671   0.0107670   1.0026537      -0.424       0.771
   1.0027444  -0.0108133   0.0108133   1.0027443      -0.368       0.723
   1.0028352  -0.0108596   0.0108596   1.0028350      -0.349       0.718
   1.0029248  -0.0109059   0.0109059   1.0029248      -0.343       0.754
   1.0030171  -0.0107900   0.0107900   1.0030171      -0.281       0.751
   1.0031092  -0.0106741   0.0106741   1.0031092      -0.207       0.750
   1.0032012  -0.0105582   0.0105582   1.0032012      -0.153       0.754
   1.0032930  -0.0104423   0.0104423   1.0032930      -0.082       0.764
   1.0034772  -0.0103272   0.0103272   1.0034773       0.008       0.779
   1.0036616  -0.0102122   0.0102122   1.0036618       0.101       0.806
   1.0038489  -0.0099926   0.0099926   1.0038489       0.232       0.730
   1.0040350  -0.0097728   0.0097728   1.0040351       0.330       0.740
   1.0042211  -0.0095530   0.0095530   1.0042211       0.440       0.713
   1.0044066  -0.0093330   0.0093331   1.0044065       0.545       0.699
   1.0045928  -0.0091131   0.0091131   1.0045928       0.624       0.706
   1.0049434  -0.0088945   0.0088945   1.0049434       0.705       0.710
   1.0052980  -0.0081989   0.0081989   1.0052980       0.823       0.681
   1.0056520  -0.0075028   0.0075028   1.0056520       0.929       0.659
   1.0060067  -0.0068063   0.0068063   1.0060067       1.036       0.650
   1.0063589  -0.0061093   0.0061092   1.0063589       1.129       0.649
   1.0067123  -0.0054117   0.0054117   1.0067124       1.265       0.607
   1.0070639  -0.0047137   0.0047137   1.0070639       1.350       0.583
   1.0066319  -0.0045001   0.0045001   1.0066319       1.351       0.535
   1.0061984  -0.0042866   0.0042866   1.0061984       1.330       0.468
   1.0057648  -0.0040734   0.0040734   1.0057647       1.287       0.411
   1.0053315  -0.0038603   0.0038603   1.0053315       1.254       0.352
   1.0048984  -0.0036474   0.0036474   1.0048984       1.211       0.293
   1.0044677  -0.0034347   0.0034347   1.0044677       1.197       0.157
   0.16   0.16   0.16   0.16   0.16   0.16   0.16   0.16   0.16   0.16
   0.16   0.16   0.16   0.16   0.16   0.16   0.16   0.16   0.16   0.16
   0.16   0.16   0.16   0.16   0.16   0.16   0.16   0.16   0.16   0.16
   0.16   0.16   0.16   0.16   0.16   0.16   0.16   0.16   0.16   0.16
   0.16   0.16   0.16   0.16   0.16   0.16   0.16   0.16   0.16   0.16
   0.16   0.16   0.16   0.16   0.16   0.16   0.16   0.16   0.16   0.16
   0.16
   0.9999863   0.0052416  -0.0052416   0.9999863       1.316      -0.044
   0.9997960   0.0051914  -0.0051914   0.9997960       1.275      -0.057
   0.9996055   0.0051412  -0.0051412   0.9996055       1.298      -0.056
   0.9994151   0.0050910  -0.0050910   0.9994150       1.323       0.007
   0.9992245   0.0050409  -0.0050409   0.9992245       1.372       0.023
   0.9990340   0.0049908  -0.0049908   0.9990341       1.417       0.026
   0.9988433   0.0049407  -0.0049407   0.9988433       1.455       0.016
   0.9983998   0.0053702  -0.0053702   0.9983998       1.513       0.018
   0.9979560   0.0057994  -0.0057994   0.9979560       1.579       0.060
   0.9975112   0.0062281  -0.0062282   0.9975112       1.660       0.065
   0.9970672   0.0066565  -0.0066565   0.9970672       1.674       0.107
   0.9966226   0.0070846  -0.0070846   0.9966226       1.696       0.120
   0.9961780   0.0075121  -0.0075121   0.9961780       1.721       0.161
   0.9957353   0.0076678  -0.0076678   0.9957353       1.731       0.157
   0.9954273   0.0078244  -0.0078244   0.9954273       1.721       0.200
   0.9951192   0.0079808  -0.0079808   0.9951192       1.729       0.218
   0.9948152   0.0081372  -0.0081372   0.9948152       1.694       0.227
   0.9945092   0.0082934  -0.0082934   0.9945092       1.700       0.232
   0.9942009   0.0084496  -0.0084496   0.9942009       1.709       0.257
   0.9938956   0.0085709  -0.0085709   0.9938956       1.688       0.290
   0.9935908   0.0086921  -0.0086921   0.9935908       1.669       0.316
   0.9933362   0.0088136  -0.0088137   0.9933363       1.635       0.333
   0.9930816   0.0089351  -0.0089352   0.9930816       1.595       0.354
   0.9928256   0.0090566  -0.0090566   0.9928256       1.560       0.368
   0.9925703   0.0091780  -0.0091780   0.9925703       1.499       0.387
   0.9923194   0.0091462  -0.0091462   0.9923195       1.416       0.400
   0.9920664   0.0091144  -0.0091144   0.9920664       1.330       0.408
   0.9918152   0.0090826  -0.0090827   0.9918152       1.210       0.368
   0.9918171   0.0090533  -0.0090533   0.9918171       1.144       0.396
   0.9918163   0.0090238  -0.0090238   0.9918163       1.053       0.414
   0.9918169   0.0089944  -0.0089944   0.9918169       1.001       0.408
   0.9918166   0.0089475  -0.0089475   0.9918166       0.937       0.390
   0.9918187   0.0089006  -0.0089006   0.9918186       0.899       0.371
   0.9918209   0.0088538  -0.0088538   0.9918209       0.872       0.363
   0.9917081   0.0088059  -0.0088059   0.9917081       0.919       0.405
   0.9915952   0.0087580  -0.0087580   0.9915952       0.907       0.394
   0.9914851   0.0087102  -0.0087102   0.9914851       0.856       0.360
   0.9913738   0.0084951  -0.0084952   0.9913740       0.872       0.328
   0.9912625   0.0082802  -0.0082802   0.9912625       0.899       0.287
   0.9911518   0.0080652  -0.0080652   0.9911518       0.940       0.255
   0.9910423   0.0078503  -0.0078503   0.9910423       0.997       0.221
   0.9909343   0.0076356  -0.0076356   0.9909344       1.060       0.169
   0.9908266   0.0074208  -0.0074208   0.9908266       1.121       0.126
   0.9907138   0.0072505  -0.0072505   0.9907138       1.251       0.114
   0.9906035   0.0070803  -0.0070803   0.9906035       1.322       0.088
   0.9904939   0.0069101  -0.0069101   0.9904939       1.430       0.053
   0.9903848   0.0067400  -0.0067400   0.9903847       1.510       0.024
   0.9902743   0.0065699  -0.0065699   0.9902743       1.572       0.002
   0.9902706   0.0064005  -0.0064005   0.9902706       1.634      -0.037
   0.9902685   0.0059033  -0.0059033   0.9902684       1.666      -0.099
   0.9902666   0.0054061  -0.0054061   0.9902666       1.674      -0.151
   0.9902626   0.0049089  -0.0049089   0.9902627       1.689      -0.207
   0.9902617   0.0044116  -0.0044116   0.9902616       1.669      -0.259
   0.9902580   0.0039145  -0.0039145   0.9902580       1.665      -0.335
   0.9902560   0.0034172  -0.0034172   0.9902560       1.635      -0.367
   0.9911594   0.0027581  -0.0027581   0.9911593       1.556      -0.349
   0.9920634   0.0020977  -0.0020977   0.9920634       1.480      -0.356
   0.9929673   0.0014362  -0.0014362   0.9929672       1.401      -0.336
   0.9938703   0.0007734  -0.0007734   0.9938701       1.319      -0.312
   0.9947717   0.0001095  -0.0001095   0.9947718       1.236      -0.327
   0.9956704  -0.0005557   0.0005557   0.9956704       1.034      -0.310
  -0.09  -0.09  -0.09  -0.09  -0.09  -0.09  -0.09  -0.09  -0.09  -0.09
  -0.09  -0.09  -0.09  -0.09  -0.09  -0.09  -0.09  -0.09  -0.09  -0.09
  -0.09  -0.09  -0.09  -0.09  -0.09  -0.09  -0.09  -0.09  -0.09  -0.09
  -0.09  -0.09  -0.09  -0.09  -0.09  -0.09  -0.09  -0.09  -0.09  -0.09
  -0.09  -0.09  -0.09  -0.09  -0.09  -0.09  -0.09  -0.09  -0.09  -0.09
  -0.09  -0.09  -0.09  -0.09  -0.09  -0.09  -0.09  -0.09  -0.09  -0.09
  -0.09
   0.9999781  -0.0066177   0.0066177   0.9999781       0.669       0.009
   0.9998841  -0.0063505   0.0063505   0.9998841       0.466       0.060
   0.9997900  -0.0060835   0.0060835   0.9997899       0.309       0.066
   0.9996957  -0.0058164   0.0058164   0.9996957       0.154       0.067
   0.9996015  -0.0055495   0.0055495   0.9996015       0.052       0.072
   0.9995070  -0.0052826   0.0052825   0.9995071      -0.030       0.080
   0.9994125  -0.0050157   0.0050157   0.9994126      -0.081       0.099
   0.9996419  -0.0051062   0.0051063   0.9996419      -0.108       0.119
   0.9998710  -0.0051969   0.0051968   0.9998711      -0.164       0.138
   1.0001006  -0.0052875   0.0052875   1.0001006      -0.203       0.144
   1.0003299  -0.0053782   0.0053782   1.0003299      -0.176       0.157
   1.0005593  -0.0054690   0.0054690   1.0005592      -0.166       0.176
   1.0007889  -0.0055598   0.0055598   1.0007889      -0.156       0.208
   1.0010207  -0.0052217   0.0052217   1.0010207      -0.164       0.194
   1.0010409  -0.0048823   0.0048823   1.0010409      -0.185       0.200
   1.0010611  -0.0045431   0.0045431   1.0010611      -0.215       0.205
   1.0010803  -0.0042037   0.0042037   1.0010803      -0.191       0.183
   1.0010995  -0.0038644   0.0038644   1.0010996      -0.190       0.158
   1.0011195  -0.0035250   0.0035250   1.0011194      -0.207       0.149
   1.0011380  -0.0033835   0.0033835   1.0011380      -0.172       0.147
   1.0011562  -0.0032420   0.0032420   1.0011562      -0.135       0.134
   1.0013176  -0.0031010   0.0031010   1.0013176      -0.079       0.119
   1.0014783  -0.0029599   0.0029599   1.0014783      -0.025       0.118
   1.0016397  -0.0028188   0.0028188   1.0016397       0.042       0.095
   1.0018007  -0.0026775   0.0026775   1.0018007       0.137       0.087
   1.0019606  -0.0026160   0.0026160   1.0019608       0.246       0.061
   1.0021213  -0.0025545   0.0025545   1.0021213       0.342       0.043
   1.0022813  -0.0024929   0.0024929   1.0022813       0.488       0.081
   1.0021557  -0.0024306   0.0024306   1.0021555       0.528       0.069
   1.0020305  -0.0023684   0.0023684   1.0020305       0.577       0.060
   1.0019052  -0.0023061   0.0023061   1.0019052       0.601       0.067
   1.0017803  -0.0021399   0.0021399   1.0017802       0.602       0.083
   1.0016546  -0.0019738   0.0019738   1.0016546       0.577       0.095
   1.0015292  -0.0018077   0.0018077   1.0015292       0.550       0.097
   1.0014644  -0.0016418   0.0016418   1.0014642       0.467       0.040
   1.0013993  -0.0014758   0.0014758   1.0013992       0.446       0.023
   1.0013340  -0.0013099   0.0013099   1.0013340       0.476       0.042
   1.0012690  -0.0012817   0.0012817   1.0012690       0.430       0.047
   1.0012037  -0.0012535   0.0012535   1.0012037       0.376       0.058
   1.0011384  -0.0012252   0.0012252   1.0011384       0.320       0.064
   1.0010732  -0.0011970   0.0011970   1.0010734       0.265       0.070
   1.0011970  -0.0011690   0.0011690   1.0011970       0.223       0.083
   1.0013207  -0.0011411   0.0011411   1.0013208       0.173       0.104
   1.0014451  -0.0013138   0.0013138   1.0014449       0.089       0.087
   1.0015688  -0.0014865   0.0014865   1.0015689       0.041       0.112
   1.0016927  -0.0016594   0.0016594   1.0016927      -0.017       0.118
   1.0018164  -0.0018322   0.0018323   1.0018164      -0.024       0.126
   1.0019403  -0.0020052   0.0020052   1.0019403      -0.050       0.138
   1.0023707  -0.0021788   0.0021788   1.0023706      -0.060       0.137
   1.0027997  -0.0028626   0.0028625   1.0027997      -0.028       0.162
   1.0032283  -0.0035469   0.0035469   1.0032283      -0.010       0.194
   1.0036572  -0.0042319   0.0042319   1.0036573       0.016       0.219
   1.0040846  -0.0049174   0.0049174   1.0040846       0.081       0.235
   1.0045124  -0.0056035   0.0056035   1.0045123       0.153       0.261
   1.0049388  -0.0062903   0.0062903   1.0049388       0.193       0.269
   1.0048376  -0.0069065   0.0069065   1.0048376       0.182       0.315
   1.0047350  -0.0075226   0.0075226   1.0047350       0.182       0.293
   1.0046318  -0.0081386   0.0081386   1.0046318       0.132       0.311
   1.0045285  -0.0087544   0.0087544   1.0045284       0.091       0.341
   1.0044247  -0.0093701   0.0093701   1.0044248       0.062       0.357
   1.0043230  -0.0099858   0.0099858   1.0043230       0.142       0.378
   0.04   0.04   0.04   0.04   0.04   0.04   0.04   0.04   0.04   0.04
   0.04   0.04   0.04   0.04   0.04   0.04   0.04   0.04   0.04   0.04
   0.04   0.04   0.04   0.04   0.04   0.04   0.04   0.04   0.04   0.04
   0.04   0.04   0.04   0.04   0.04   0.04   0.04   0.04   0.04   0.04
   0.04   0.04   0.04   0.04   0.04   0.04   0.04   0.04   0.04   0.04
   0.04   0.04   0.04   0.04   0.04   0.04   0.04   0.04   0.04   0.04
   0.04
   0.9999312  -0.0117352   0.0117352   0.9999312      -0.102      -0.085
   1.0002742  -0.0105464   0.0105464   1.0002742      -0.261      -0.120
   1.0006157  -0.0093568   0.0093568   1.0006157      -0.376      -0.162
   1.0009558  -0.0081664   0.0081664   1.0009558      -0.477      -0.204
   1.0012950  -0.0069752   0.0069751   1.0012950      -0.583      -0.227
   1.0016325  -0.0057831   0.0057831   1.0016326      -0.684      -0.242
   1.0019687  -0.0045903   0.0045903   1.0019687      -0.773      -0.242
   1.0017066  -0.0041699   0.0041699   1.0017066      -0.794      -0.209
   1.0014446  -0.0037495   0.0037495   1.0014446      -0.810      -0.199
   1.0011824  -0.0033295   0.0033295   1.0011824      -0.816      -0.125
   1.0009195  -0.0029096   0.0029096   1.0009195      -0.819      -0.092
   1.0006561  -0.0024901   0.0024901   1.0006561      -0.817      -0.072
   1.0003930  -0.0020707   0.0020707   1.0003930      -0.802      -0.034
   1.0001291  -0.0018723   0.0018723   1.0001290      -0.769      -0.012
   0.9999776  -0.0016743   0.0016743   0.9999775      -0.729       0.028
   0.9998263  -0.0014763   0.0014763   0.9998261      -0.695       0.048
   0.9996747  -0.0012783   0.0012784   0.9996747      -0.669       0.004
   0.9995232  -0.0010805   0.0010805   0.9995232      -0.643       0.009
   0.9993715  -0.0008826   0.0008827   0.9993713      -0.580       0.052
   0.9992199  -0.0008995   0.0008996   0.9992199      -0.517       0.070
   0.9990683  -0.0009164   0.0009164   0.9990683      -0.443       0.057
   0.9988723  -0.0009332   0.0009332   0.9988723      -0.363       0.054
   0.9986759  -0.0009500   0.0009500   0.9986759      -0.311       0.068
   0.9984796  -0.0009667   0.0009667   0.9984796      -0.239       0.074
   0.9982832  -0.0009835   0.0009835   0.9982832      -0.175       0.111
   0.9980881  -0.0007985   0.0007985   0.9980881      -0.122       0.102
   0.9978924  -0.0006136   0.0006136   0.9978924      -0.059       0.142
   0.9976968  -0.0004289   0.0004288   0.9976969       0.046       0.122
   0.9978085  -0.0002441   0.0002441   0.9978083       0.061       0.137
   0.9979192  -0.0000594   0.0000594   0.9979192       0.062       0.177
   0.9980302   0.0001254  -0.0001254   0.9980302       0.041       0.183
   0.9981411   0.0001309  -0.0001309   0.9981411       0.013       0.183
   0.9982523   0.0001364  -0.0001364   0.9982523       0.001       0.155
   0.9983636   0.0001419  -0.0001419   0.9983636       0.000       0.120
   0.9984311   0.0001475  -0.0001475   0.9984311      -0.086       0.169
   0.9984987   0.0001530  -0.0001530   0.9984986      -0.123       0.178
   0.9985666   0.0001585  -0.0001585   0.9985666      -0.140       0.124
   0.9986338   0.0003432  -0.0003432   0.9986338      -0.206       0.118
   0.9987013   0.0005280  -0.0005280   0.9987013      -0.274       0.108
   0.9987685   0.0007128  -0.0007128   0.9987685      -0.337       0.095
   0.9988362   0.0008976  -0.0008975   0.9988362      -0.383       0.069
   0.9989529   0.0010824  -0.0010824   0.9989529      -0.451       0.034
   0.9990698   0.0012673  -0.0012673   0.9990698      -0.518       0.015
   0.9991858   0.0016143  -0.0016144   0.9991858      -0.620       0.036
   0.9993023   0.0019614  -0.0019614   0.9993023      -0.698       0.052
   0.9994183   0.0023086  -0.0023086   0.9994182      -0.769       0.059
   0.9995347   0.0026559  -0.0026559   0.9995345      -0.818       0.058
   0.9996504   0.0030032  -0.0030032   0.9996504      -0.874       0.069
   0.9994645   0.0033497  -0.0033496   0.9994644      -0.947       0.086
   0.9992769   0.0039672  -0.0039673   0.9992771      -1.033       0.122
   0.9990891   0.0045846  -0.0045846   0.9990891      -1.136       0.170
   0.9989007   0.0052017  -0.0052017   0.9989008      -1.232       0.221
   0.9987125   0.0058185  -0.0058185   0.9987125      -1.320       0.244
   0.9985236   0.0064352  -0.0064352   0.9985236      -1.417       0.285
   0.9983343   0.0070516  -0.0070516   0.9983342      -1.515       0.343
   0.9986079   0.0083377  -0.0083377   0.9986079      -1.690       0.379
   0.9988800   0.0096245  -0.0096245   0.9988800      -1.857       0.408
   0.9991505   0.0109120  -0.0109120   0.9991503      -2.040       0.426
   0.9994190   0.0122002  -0.0122002   0.9994190      -2.223       0.438
   0.9996856   0.0134892  -0.0134892   0.9996856      -2.442       0.447
   0.9999506   0.0147788  -0.0147788   0.9999506      -2.714       0.518
