  65.06
  63.01
  60.96
  58.97
  56.99
  55.01
  52.99
  50.98
  48.96
  46.95
  44.95
  42.96
  40.97
  38.97
  36.98
  34.93
  32.89
  30.84
  28.80
  26.75
  24.72
  22.69
  20.66
  18.63
  16.60
  14.66
  12.73
  10.80
   8.87
   6.93
   5.00
   2.96
   0.91
  -1.13
  -3.18
  -5.22
  -7.27
  -9.24
 -11.21
 -13.18
 -15.14
 -17.12
 -19.09
 -21.10
 -23.11
 -25.12
 -27.13
 -29.14
 -31.14
 -33.15
 -35.16
 -37.18
 -39.19
 -41.19
 -43.16
 -45.13
 -47.10
 -49.08
 -51.09
 -53.10
 -55.12
