   0.9787401  -0.1898026   0.1861716   0.9824197       8.908       0.174
   0.9795374  -0.1893263   0.1870660   0.9829495       9.076       0.030
   0.9844255  -0.1900880   0.1881963   0.9833786       9.307       0.113
   0.9838874  -0.1896457   0.1887820   0.9826415       9.251       0.183
   0.9848005  -0.1905262   0.1905726   0.9833832       9.346       0.235
   0.9847977  -0.1900792   0.1909394   0.9832205       9.333       0.204
   0.9830936  -0.1888895   0.1909552   0.9838107       9.421       0.169
   0.9829410  -0.1887806   0.1915133   0.9835294       9.185       0.000
   0.9840747  -0.1894992   0.1928477   0.9845511       9.089       0.058
   0.9837502  -0.1893395   0.1932483   0.9841176       8.818      -0.029
   0.9836541  -0.1892573   0.1936857   0.9839210       8.645       0.106
   0.9841411  -0.1896549   0.1942473   0.9830222       8.431       0.035
   0.9840807  -0.1905288   0.1955151   0.9828888       8.053       0.132
   0.9842290  -0.1903968   0.1957540   0.9829645       7.572      -0.045
   0.9846570  -0.1908955   0.1966075   0.9833245       7.225       0.030
   0.9851367  -0.1911858   0.1972355   0.9837387       6.991       0.135
   0.9848066  -0.1910083   0.1973763   0.9833461       6.604       0.044
   0.9857758  -0.1915415   0.1981982   0.9841186       6.375       0.038
   0.9855741  -0.1915875   0.1985421   0.9838586       6.087       0.007
   0.9855883  -0.1916457   0.1988915   0.9838153       5.543      -0.104
   0.9859619  -0.1917093   0.1992429   0.9841318       5.328      -0.086
   0.9866119  -0.1919728   0.1994195   0.9847986       4.942      -0.121
   0.9860295  -0.1922634   0.1996211   0.9842344       4.419      -0.013
   0.9861656  -0.1926423   0.1999225   0.9843860       3.959      -0.141
   0.9856758  -0.1929998   0.2002039   0.9839119       3.518      -0.114
   0.9853043  -0.1924036   0.1998008   0.9848518       3.156      -0.180
   0.9850234  -0.1930835   0.2004187   0.9845839       2.726      -0.204
   0.9844804  -0.1935791   0.2008540   0.9840527       2.314      -0.182
   0.9844105  -0.1938016   0.2010228   0.9839938       1.838      -0.127
   0.9847293  -0.1942565   0.2014311   0.9843233       1.325      -0.221
   0.9849942  -0.1945835   0.2017143   0.9845980       1.021      -0.368
   0.9851766  -0.1946729   0.2018399   0.9847737       0.627      -0.201
   0.9848526  -0.1955267   0.2027322   0.9844430       0.299      -0.120
   0.9853036  -0.1953741   0.2026239   0.9848856      -0.206      -0.212
   0.9849899  -0.1951049   0.2025570   0.9853410      -0.771      -0.134
   0.9849356  -0.1954760   0.2029783   0.9852772      -1.185      -0.040
   0.9846187  -0.1956462   0.2032000   0.9849491      -1.476      -0.284
   0.9842277  -0.1954958   0.2031029   0.9845456      -1.892      -0.177
   0.9843500  -0.1957600   0.2034302   0.9846563      -2.408      -0.198
   0.9842975  -0.1961251   0.2038618   0.9845909      -2.739      -0.168
   0.9847112  -0.1963793   0.2041903   0.9849916      -3.162      -0.115
   0.9854192  -0.1964446   0.2043680   0.9856795      -3.441      -0.113
   0.9857896  -0.1966148   0.2046546   0.9860281      -3.834       0.081
   0.9847938  -0.1975834   0.2061090   0.9867747      -4.203      -0.025
   0.9847739  -0.1973914   0.2060442   0.9867285      -4.769       0.096
   0.9846970  -0.1967855   0.2055712   0.9866229      -5.062      -0.005
   0.9847963  -0.1968075   0.2057406   0.9866933      -5.480      -0.055
   0.9853685  -0.1962849   0.2053769   0.9872369      -5.730       0.157
   0.9851227  -0.1968128   0.2060738   0.9869561      -6.156       0.123
   0.9848359  -0.1976333   0.2070775   0.9866313      -6.363       0.026
   0.9846094  -0.1981951   0.2076222   0.9853516      -6.585      -0.053
   0.9845289  -0.1980964   0.2077078   0.9852334      -6.871       0.017
   0.9843589  -0.1986426   0.2084567   0.9850216      -7.017       0.096
   0.9838275  -0.1987029   0.2087312   0.9844437      -7.145       0.099
   0.9835976  -0.1988221   0.2090856   0.9841648      -7.376       0.126
   0.9845881  -0.1990087   0.2095426   0.9851060      -7.515       0.295
   0.9862316  -0.1991641   0.2097282   0.9854130      -7.427       0.119
   0.9865235  -0.1986521   0.2095337   0.9856424      -7.546       0.213
   0.9857234  -0.1993969   0.2106274   0.9847677      -7.692       0.281
   0.9861759  -0.2006640   0.2122998   0.9851364      -7.880       0.186
   0.9867794  -0.2012857   0.2133750   0.9856478      -8.067       0.228
