     2     2   186   179   130   152     0    20.20000   1
  -0.04  -0.03  -0.02  -0.01   0.04   0.08   0.13   0.17   0.17   0.16
   0.16   0.15   0.15   0.01  -0.13  -0.27  -0.41  -0.54  -0.45  -0.36
  -0.27  -0.18  -0.09   0.00   0.09   0.09   0.10   0.11   0.11   0.12
   0.13   0.14   0.13   0.13   0.12   0.12   0.11   0.11   0.11   0.09
   0.07   0.06   0.04   0.03   0.01  -0.01  -0.03  -0.05  -0.08  -0.10
  -0.12  -0.14  -0.12  -0.09  -0.07  -0.04  -0.02  -0.07  -0.12  -0.17
  -0.22
   -0.010628   -0.000821   -0.010435   -0.000234   -0.004660    0.000259
   -0.004569    0.000677   -0.004474    0.001035   -0.004373    0.001341
   -0.000191    0.001599   -0.000186    0.001818   -0.000180    0.001997
   -0.000174    0.002145   -0.000168    0.002268    0.000549    0.001832
    0.000527    0.001443    0.000504    0.001091    0.000481    0.000782
    0.000456    0.000511    0.000431    0.000276    0.000967    0.000074
    0.000911   -0.000098    0.000855   -0.000244    0.000799   -0.000365
    0.000741   -0.000199    0.000683   -0.000058    0.000624    0.000058
    0.000564    0.000151    0.000057    0.000220    0.000049    0.000265
    0.000042    0.000287    0.000035    0.000286    0.000027    0.000263
    0.000020    0.000218    0.000012    0.000151    0.000005    0.000064
   -0.000003   -0.000042    0.000147   -0.000171    0.000253   -0.000320
    0.000359   -0.000490    0.000466   -0.000685    0.000572   -0.000902
    0.000679   -0.001145    0.000784   -0.001411    0.000889   -0.001631
    0.000992   -0.001856    0.001176   -0.002090    0.001284   -0.002334
    0.001390   -0.002588    0.001494   -0.002854    0.001596   -0.003133
    0.001699   -0.003426    0.001798   -0.003731    0.003371   -0.004056
    0.003536   -0.004714    0.003694   -0.005432    0.003848   -0.006224
    0.004001   -0.007103    0.004150   -0.008077    0.004800   -0.009149
    0.004951   -0.010359    0.005104   -0.011714    0.005252   -0.013223
    0.005387   -0.014909
   1.0053585   0.0007026   0.0009426   0.9998001       0.286      -0.029
   1.0053823   0.0006132   0.0002615   0.9998278       0.251      -0.034
   1.0031197   0.0005259  -0.0003168   0.9998555       0.180      -0.033
   1.0031483   0.0004361  -0.0008144   0.9998832       0.240       0.004
   1.0031775   0.0003463  -0.0012509   0.9999107       0.196      -0.108
   1.0032051   0.0002565  -0.0016367   0.9999383       0.110      -0.032
   1.0010720   0.0001672  -0.0019688   0.9999661      -0.059      -0.044
   1.0011002   0.0002020  -0.0023989   0.9999948      -0.030      -0.145
   1.0011300   0.0002370  -0.0027968   1.0000236       0.067      -0.107
   1.0011584   0.0002719  -0.0031697   1.0000523       0.060      -0.122
   1.0011857   0.0003068  -0.0035244   1.0000808       0.042      -0.148
   0.9993029   0.0003415  -0.0029033   1.0001097       0.045      -0.125
   0.9993328   0.0003764  -0.0023291   1.0001383       0.033      -0.091
   0.9993621   0.0002731  -0.0016509   1.0001668      -0.002      -0.063
   0.9995800   0.0001697  -0.0010072   1.0003844       0.035      -0.093
   0.9997975   0.0000664  -0.0003927   1.0006014       0.052      -0.029
   1.0000147  -0.0000370   0.0001961   1.0008186       0.032       0.018
   0.9980764  -0.0001403   0.0007623   1.0010358      -0.055       0.122
   0.9982933  -0.0002438   0.0013105   1.0012531      -0.166       0.157
   0.9985104  -0.0002433   0.0017404   1.0014704      -0.085       0.254
   0.9987259  -0.0002428   0.0021585   1.0016892      -0.048       0.337
   0.9985299  -0.0002422   0.0019390   1.0014933      -0.081       0.267
   0.9983347  -0.0002416   0.0017272   1.0012966      -0.086       0.228
   0.9981396  -0.0002411   0.0015221   1.0010999      -0.192       0.252
   0.9979439  -0.0002405   0.0013231   1.0009036      -0.135       0.207
   0.9994180  -0.0001859   0.0010774   1.0007086      -0.033       0.066
   0.9992220  -0.0001314   0.0008342   1.0005119      -0.024      -0.003
   0.9990259  -0.0000769   0.0005950   1.0003159      -0.033      -0.005
   0.9988851  -0.0000224   0.0003590   1.0001750       0.013       0.000
   0.9987437   0.0000321   0.0001256   1.0000341      -0.080      -0.042
   0.9986029   0.0000866  -0.0001060   0.9998936      -0.080       0.000
   0.9984629  -0.0001547   0.0002579   0.9997520      -0.061      -0.003
   0.9983230  -0.0003960   0.0006214   0.9996102      -0.068      -0.022
   0.9981836  -0.0006371   0.0009849   0.9994680       0.001       0.006
   1.0000031  -0.0008770   0.0013536   0.9993929       0.050      -0.072
   0.9999319  -0.0011177   0.0017198   0.9993181      -0.066      -0.094
   0.9998608  -0.0013585   0.0020874   0.9992428      -0.092      -0.092
   0.9997885  -0.0011279   0.0019829   0.9991710      -0.122      -0.082
   0.9997160  -0.0008973   0.0018808   0.9990993      -0.156      -0.055
   0.9996432  -0.0006666   0.0017814   0.9990273      -0.113      -0.074
   0.9995704  -0.0004361   0.0016854   0.9989550      -0.064      -0.032
   0.9998918  -0.0002057   0.0013840   0.9992799       0.029      -0.020
   1.0002131   0.0000249   0.0010821   0.9996053       0.039       0.003
   1.0000386   0.0001584   0.0008774   0.9999307      -0.017       0.009
   1.0003601   0.0002920   0.0006717   1.0002557       0.012       0.103
   1.0006818   0.0004257   0.0004647   1.0005808       0.010       0.079
   1.0010033   0.0005595   0.0002557   1.0009056       0.048       0.149
   1.0013247   0.0006934   0.0000447   1.0012306       0.123       0.285
   1.0008904   0.0008267  -0.0001686   1.0007973       0.102       0.224
   1.0004581   0.0006220  -0.0000445   1.0003614       0.174       0.169
   1.0030460   0.0004177   0.0000764   0.9999252       0.043       0.064
   1.0026116   0.0002133  -0.0001056   0.9994893      -0.022       0.120
   1.0021774   0.0000090  -0.0003022   0.9990535      -0.175       0.061
   1.0017438  -0.0001951  -0.0005208   0.9986169      -0.104       0.023
   1.0013107  -0.0003990  -0.0007652   0.9981806      -0.039      -0.194
   1.0015942  -0.0000794  -0.0015686   0.9984704       0.079      -0.118
   1.0024320   0.0002403  -0.0024088   0.9987634       0.043      -0.062
   1.0027095   0.0005602  -0.0033086   0.9990565      -0.011       0.008
   1.0029896   0.0008803  -0.0042644   0.9993483       0.034       0.109
   1.0032701   0.0012006  -0.0052845   0.9996410      -0.015       0.065
   1.0035465   0.0015210  -0.0063804   0.9999350       0.014       0.096
  -0.03  -0.01   0.02   0.05   0.04   0.04   0.03   0.03   0.02   0.01
   0.01   0.00  -0.01  -0.03  -0.05  -0.08  -0.10  -0.12  -0.09  -0.07
  -0.04  -0.01   0.01   0.04   0.07   0.06   0.06   0.05   0.05   0.04
   0.04   0.04   0.04   0.05   0.06   0.07   0.08   0.09   0.09   0.07
   0.04   0.02  -0.01  -0.03  -0.06  -0.08  -0.08  -0.08  -0.08  -0.07
  -0.07  -0.07  -0.07  -0.07  -0.07  -0.07  -0.07  -0.06  -0.05  -0.04
  -0.03
   -0.005790    0.000111   -0.005686   -0.000214   -0.001396   -0.000487
   -0.001369   -0.000719   -0.001340   -0.000915   -0.001309   -0.001081
    0.000064   -0.001218    0.000062   -0.001333    0.000061   -0.001426
    0.000059   -0.001502    0.000057   -0.001563    0.000024   -0.001228
    0.000022   -0.000930    0.000021   -0.000665    0.000020   -0.000432
    0.000019   -0.000227    0.000018   -0.000049   -0.000595    0.000104
   -0.000561    0.000234   -0.000525    0.000341   -0.000490    0.000429
   -0.000454    0.000487   -0.000417    0.000528   -0.000380    0.000553
   -0.000342    0.000563   -0.000246    0.000554   -0.000213    0.000530
   -0.000181    0.000490   -0.000148    0.000436   -0.000116    0.000366
   -0.000083    0.000281   -0.000051    0.000193   -0.000019    0.000079
    0.000013   -0.000062    0.000086   -0.000232    0.000147   -0.000430
    0.000207   -0.000657    0.000268   -0.000916    0.000329   -0.001207
    0.000389   -0.001534    0.000449   -0.001894    0.000510   -0.002136
    0.000570   -0.002373    0.000962   -0.002608    0.001051   -0.002843
    0.001138   -0.003075    0.001223   -0.003303    0.001306   -0.003531
    0.001390   -0.003759    0.001470   -0.003985    0.002686   -0.004216
    0.002817   -0.004705    0.002945   -0.005237    0.003070   -0.005815
    0.003194   -0.006453    0.003316   -0.007152    0.004102   -0.007915
    0.004228   -0.008746    0.004356   -0.009669    0.004481   -0.010686
    0.004595   -0.011812
   1.0003678   0.0009277  -0.0003274   1.0002259       0.126       0.033
   1.0003492   0.0008662  -0.0000184   1.0002067       0.138       0.020
   0.9996871   0.0008080   0.0002589   1.0001875       0.130       0.008
   0.9996679   0.0007463   0.0005150   1.0001683       0.182      -0.008
   0.9996486   0.0006845   0.0007509   1.0001491       0.121      -0.031
   0.9996294   0.0006227   0.0009712   1.0001299       0.169      -0.049
   1.0008970   0.0005626   0.0011749   1.0001107       0.100      -0.021
   1.0007735   0.0005842   0.0012860   0.9999874       0.079      -0.039
   1.0006511   0.0006057   0.0013882   0.9998641       0.083      -0.084
   1.0005277   0.0006273   0.0014832   0.9997407       0.071      -0.147
   1.0004041   0.0006489   0.0015741   0.9996175       0.066      -0.087
   0.9994605   0.0006698   0.0012676   0.9994941       0.081      -0.105
   0.9993377   0.0006913   0.0009809   0.9993713       0.067      -0.078
   0.9992142   0.0005091   0.0009151   0.9992478       0.053      -0.068
   0.9993848   0.0003271   0.0008645   0.9994185       0.034      -0.129
   0.9995556   0.0001450   0.0008268   0.9995892      -0.016      -0.138
   0.9997263  -0.0000372   0.0008007   0.9997599      -0.034      -0.133
   1.0000521  -0.0002192   0.0007858   0.9999307      -0.082      -0.092
   1.0002230  -0.0004014   0.0007786   1.0001014      -0.148      -0.049
   1.0003939  -0.0004034   0.0005982   1.0002723      -0.144       0.022
   1.0005651  -0.0004055   0.0004242   1.0004436      -0.122       0.035
   1.0005879  -0.0004076   0.0003393   1.0004663      -0.091       0.071
   1.0006105  -0.0004096   0.0002567   1.0004889      -0.096       0.091
   1.0006326  -0.0004116   0.0001761   1.0005112      -0.059       0.099
   1.0006552  -0.0004136   0.0000971   1.0005337      -0.029       0.082
   1.0004302  -0.0004615   0.0000657   1.0005569      -0.048       0.059
   1.0004525  -0.0005093   0.0000354   1.0005791      -0.078       0.043
   1.0004750  -0.0005571   0.0000058   1.0006016      -0.089       0.055
   1.0003089  -0.0006049  -0.0000235   1.0004351      -0.064       0.062
   1.0001427  -0.0006526  -0.0000527   1.0002686      -0.063       0.079
   0.9999768  -0.0007003  -0.0000820   1.0001023      -0.068       0.042
   0.9998110  -0.0007395  -0.0000260   0.9999357      -0.079       0.003
   0.9996452  -0.0007787   0.0000290   0.9997691      -0.017      -0.012
   0.9994792  -0.0008179   0.0000832   0.9996023      -0.043      -0.058
   0.9989657  -0.0008560   0.0001367   0.9996783      -0.101      -0.085
   0.9990427  -0.0008953   0.0001894   0.9997547      -0.096      -0.035
   0.9991196  -0.0009347   0.0002414   0.9998310      -0.057      -0.013
   0.9991962  -0.0007859   0.0001040   0.9999084      -0.054      -0.003
   0.9992724  -0.0006372  -0.0000341   0.9999859      -0.078       0.050
   0.9993479  -0.0004884  -0.0001736   1.0000635      -0.050       0.074
   0.9994234  -0.0003395  -0.0003140   1.0001413       0.003       0.091
   0.9995725  -0.0001907  -0.0003865   1.0002931       0.003       0.074
   0.9997221  -0.0000418  -0.0004583   1.0004447       0.000       0.117
   1.0000875   0.0000821  -0.0005045   1.0005963      -0.036       0.116
   1.0002371   0.0002061  -0.0005490   1.0007474      -0.005       0.134
   1.0003868   0.0003301  -0.0005918   1.0008991       0.037       0.186
   1.0005364   0.0004541  -0.0006308   1.0010502       0.053       0.204
   1.0006859   0.0005782  -0.0006669   1.0012015       0.079       0.230
   1.0002741   0.0007019  -0.0006993   1.0007899       0.118       0.160
   0.9998626   0.0007307  -0.0006326   1.0003773       0.145       0.032
   1.0018693   0.0007599  -0.0005627   0.9999644       0.039       0.023
   1.0014565   0.0007887  -0.0006842   0.9995522       0.073       0.011
   1.0010433   0.0008175  -0.0008103   0.9991403       0.087      -0.028
   1.0006305   0.0008463  -0.0009419   0.9987279       0.086      -0.103
   1.0002177   0.0008750  -0.0010797   0.9983158       0.116      -0.192
   1.0004940   0.0008648  -0.0011859   0.9985922       0.126      -0.145
   1.0015491   0.0008545  -0.0013020   0.9988716       0.079      -0.079
   1.0018235   0.0008443  -0.0014248   0.9991506       0.069      -0.006
   1.0021001   0.0008341  -0.0015591   0.9994282       0.060       0.013
   1.0023782   0.0008239  -0.0017066   0.9997062       0.040       0.113
   1.0026544   0.0008136  -0.0018693   0.9999850       0.006       0.094
  -0.18  -0.13  -0.08  -0.03  -0.03  -0.03  -0.03  -0.03  -0.02  -0.01
   0.00   0.01   0.02   0.03   0.05   0.06   0.07   0.08   0.05   0.02
  -0.01  -0.05  -0.08  -0.11  -0.14  -0.12  -0.10  -0.07  -0.05  -0.03
   0.00   0.02   0.03   0.04   0.06   0.07   0.08   0.09   0.10   0.08
   0.06   0.03   0.01  -0.01  -0.03  -0.06  -0.04  -0.02   0.01   0.03
   0.05   0.07   0.05   0.02   0.00  -0.02  -0.04  -0.05  -0.05  -0.05
  -0.05
   -0.001208   -0.000505   -0.001187   -0.000090   -0.002085    0.000261
   -0.002045    0.000559   -0.002002    0.000813   -0.001956    0.001028
    0.001403    0.001209    0.001364    0.001361    0.001326    0.001488
    0.001285    0.001593    0.001242    0.001679   -0.000477    0.001208
   -0.000459    0.000791   -0.000440    0.000425   -0.000422    0.000103
   -0.000402   -0.000176   -0.000382   -0.000416   -0.000405   -0.000619
   -0.000381   -0.000786   -0.000356   -0.000919   -0.000331   -0.001021
   -0.000307   -0.000677   -0.000281   -0.000383   -0.000255   -0.000139
   -0.000229    0.000059    0.000091    0.000211    0.000079    0.000319
    0.000067    0.000385    0.000056    0.000408    0.000044    0.000390
    0.000031    0.000331    0.000019    0.000223    0.000007    0.000089
   -0.000005   -0.000070    0.000132   -0.000255    0.000224   -0.000465
    0.000315   -0.000702    0.000408   -0.000970    0.000499   -0.001266
    0.000592   -0.001596    0.000684   -0.001956    0.000777   -0.002164
    0.000868   -0.002355    0.001426   -0.002532    0.001558   -0.002697
    0.001688   -0.002847    0.001813   -0.002978    0.001936   -0.003095
    0.002058   -0.003198    0.002175   -0.003284    0.001021   -0.003359
    0.001069   -0.003986    0.001116   -0.004689    0.001162   -0.005469
    0.001207   -0.006341    0.001253   -0.007310    0.003780   -0.008383
    0.003898   -0.009566    0.004018   -0.010891    0.004134   -0.012365
    0.004240   -0.014012
   0.9951716  -0.0017364   0.0030424   1.0001020       0.184       0.008
   0.9951590  -0.0015882   0.0023144   1.0000857       0.185       0.044
   1.0003654  -0.0014461   0.0016625   1.0000691       0.148       0.117
   1.0003490  -0.0012973   0.0010673   1.0000527       0.025       0.062
   1.0003326  -0.0011485   0.0005198   1.0000360       0.122      -0.005
   1.0003160  -0.0009997   0.0000114   1.0000194       0.058      -0.045
   0.9991071  -0.0008535  -0.0004617   1.0000026       0.034      -0.013
   0.9992661  -0.0007755  -0.0008372   1.0001619       0.053      -0.102
   0.9994246  -0.0006974  -0.0011905   1.0003217       0.069      -0.004
   0.9995838  -0.0006192  -0.0015252   1.0004815       0.049      -0.001
   0.9997433  -0.0005411  -0.0018462   1.0006406       0.086      -0.096
   1.0015047  -0.0004625  -0.0011920   1.0008004       0.063      -0.053
   1.0016630  -0.0003844  -0.0005799   1.0009592      -0.001      -0.046
   1.0018226   0.0000594  -0.0003741   1.0011189      -0.032      -0.079
   1.0015281   0.0005032  -0.0002033   1.0008242       0.024      -0.050
   1.0012332   0.0009467  -0.0000632   1.0005292      -0.039       0.059
   1.0009383   0.0013900   0.0000502   1.0002339      -0.086       0.025
   0.9996823   0.0018311   0.0001408   0.9999381      -0.184       0.087
   0.9993875   0.0022733   0.0002114   0.9996425      -0.218       0.162
   0.9990929   0.0020461   0.0009355   0.9993476      -0.117       0.220
   0.9987966   0.0018191   0.0016464   0.9990517      -0.105       0.171
   0.9990566   0.0015931   0.0013291   0.9993125      -0.143       0.135
   0.9993170   0.0013670   0.0010309   0.9995732      -0.113       0.164
   0.9995768   0.0011408   0.0007492   0.9998336      -0.086       0.088
   0.9998369   0.0009145   0.0004817   1.0000939       0.000       0.054
   0.9989264   0.0005804   0.0003331   1.0003545      -0.012       0.077
   0.9991865   0.0002461   0.0001947   1.0006140       0.032       0.064
   0.9994466  -0.0000883   0.0000644   1.0008740      -0.012       0.025
   0.9992049  -0.0004227  -0.0000599   1.0006312       0.057      -0.028
   0.9989630  -0.0007570  -0.0001796   1.0003884       0.023      -0.073
   0.9987215  -0.0010910  -0.0002966   1.0001456      -0.009      -0.052
   0.9984794  -0.0009788  -0.0003551   0.9999037      -0.097      -0.035
   0.9982373  -0.0008665  -0.0004152   0.9996619      -0.147      -0.073
   0.9979952  -0.0007543  -0.0004768   0.9994201      -0.142      -0.013
   0.9997634  -0.0006416  -0.0005415   0.9995452      -0.013      -0.014
   0.9998880  -0.0005298  -0.0006059   0.9996709      -0.020      -0.035
   1.0000123  -0.0004181  -0.0006712   0.9997967      -0.002      -0.052
   1.0001369  -0.0003093  -0.0007343   0.9999224       0.027      -0.109
   1.0002609  -0.0002006  -0.0007980   1.0000483       0.017      -0.140
   1.0003852  -0.0000918  -0.0008631   1.0001742       0.001      -0.093
   1.0005096   0.0000170  -0.0009289   1.0003004       0.032      -0.116
   1.0004630   0.0001259  -0.0008093   1.0002536       0.062      -0.117
   1.0004164   0.0002347  -0.0006859   1.0002064       0.064      -0.119
   1.0009718   0.0000921  -0.0003055   1.0001578       0.086      -0.143
   1.0009260  -0.0000503   0.0000817   1.0001088       0.084      -0.068
   1.0008807  -0.0001926   0.0004757   1.0000600       0.117      -0.051
   1.0008354  -0.0003349   0.0008807   1.0000112       0.071      -0.027
   1.0007895  -0.0004772   0.0012956   0.9999622       0.094       0.056
   1.0008866  -0.0006196   0.0017222   1.0000559       0.122       0.074
   1.0009824  -0.0006163   0.0020148   1.0001507       0.105       0.094
   0.9992267  -0.0006132   0.0023173   1.0002456      -0.035       0.010
   0.9993205  -0.0006098   0.0019134   1.0003402      -0.013      -0.054
   0.9994135  -0.0006065   0.0014866   1.0004345       0.053      -0.106
   0.9995065  -0.0006031   0.0010366   1.0005294       0.017      -0.094
   0.9995993  -0.0005997   0.0005595   1.0006238       0.075      -0.162
   0.9991279  -0.0004592  -0.0000874   1.0001569       0.110      -0.192
   1.0019485  -0.0003188  -0.0007738   0.9996895       0.202      -0.280
   1.0014756  -0.0001786  -0.0014975   0.9992231       0.161      -0.285
   1.0010042  -0.0000385  -0.0022711   0.9987556       0.127      -0.243
   1.0005322   0.0001015  -0.0031023   0.9982872       0.079      -0.381
   1.0000585   0.0002413  -0.0040012   0.9978204       0.008      -0.349
  -0.02  -0.02  -0.03  -0.04  -0.03  -0.03  -0.03  -0.02   0.01   0.03
   0.06   0.09   0.11   0.11   0.10   0.10   0.09   0.09   0.07   0.05
   0.03   0.01  -0.01  -0.03  -0.05  -0.06  -0.06  -0.06  -0.06  -0.06
  -0.06  -0.06  -0.05  -0.03  -0.02   0.00   0.01   0.03   0.04   0.03
   0.01   0.00  -0.02  -0.04  -0.05  -0.07  -0.04   0.00   0.03   0.06
   0.10   0.13   0.09   0.04  -0.01  -0.05  -0.10  -0.05   0.00   0.05
   0.10
   -0.004022    0.003341   -0.003949    0.002907   -0.000920    0.002534
   -0.000902    0.002218   -0.000883    0.001942   -0.000863    0.001698
    0.000230    0.001480    0.000223    0.001286    0.000217    0.001113
    0.000210    0.000959    0.000203    0.000822   -0.001730    0.000834
   -0.001664    0.000841   -0.001597    0.000842   -0.001529    0.000838
   -0.001457    0.000828   -0.001384    0.000814   -0.001057    0.000796
   -0.000995    0.000773   -0.000931    0.000746   -0.000868    0.000716
   -0.000802    0.000685   -0.000736    0.000650   -0.000668    0.000611
   -0.000601    0.000567   -0.000146    0.000517   -0.000127    0.000463
   -0.000108    0.000405   -0.000088    0.000342   -0.000068    0.000274
   -0.000049    0.000201   -0.000029    0.000142   -0.000010    0.000056
    0.000009   -0.000054    0.000067   -0.000193    0.000112   -0.000358
    0.000157   -0.000550    0.000203   -0.000773    0.000248   -0.001025
    0.000293   -0.001311    0.000338   -0.001628    0.000384   -0.001859
    0.000428   -0.002090    0.001471   -0.002326    0.001605   -0.002567
    0.001739   -0.002814    0.001866   -0.003060    0.001991   -0.003313
    0.002115   -0.003575    0.002233   -0.003842    0.001100   -0.004122
    0.001153   -0.004395    0.001207   -0.004694    0.001259   -0.005007
    0.001311   -0.005343    0.001364   -0.005701    0.001940   -0.006080
    0.002000   -0.006460    0.002061   -0.006874    0.002121   -0.007318
    0.002176   -0.007796
   0.9979473  -0.0009413  -0.0020245   0.9997649       0.017       0.006
   0.9978698  -0.0009896  -0.0016711   0.9996859       0.157       0.156
   0.9985646  -0.0010423  -0.0013561   0.9996068       0.119       0.182
   0.9984848  -0.0010909  -0.0010858   0.9995273       0.123       0.140
   0.9984049  -0.0011394  -0.0008425   0.9994479       0.147       0.092
   0.9983256  -0.0011879  -0.0006207   0.9993687       0.153       0.039
   0.9998684  -0.0012401  -0.0004152   0.9992900       0.082      -0.031
   1.0001010  -0.0009997  -0.0005153   0.9995229       0.091      -0.010
   1.0003344  -0.0007593  -0.0006293   0.9997558      -0.011      -0.032
   1.0005676  -0.0005187  -0.0007547   0.9999891       0.016       0.021
   1.0008004  -0.0002779  -0.0008906   1.0002222       0.086       0.036
   1.0030088  -0.0000371  -0.0010659   1.0004555      -0.096       0.025
   1.0032395   0.0002036  -0.0012443   1.0006882      -0.056      -0.017
   1.0034728   0.0002175  -0.0011993   1.0009212      -0.032      -0.084
   1.0031843   0.0002313  -0.0011581   1.0006318      -0.015      -0.071
   1.0028945   0.0002451  -0.0011204   1.0003420      -0.146       0.004
   1.0026053   0.0002589  -0.0010861   1.0000520      -0.197       0.023
   1.0007751   0.0002724  -0.0010544   0.9997618      -0.146       0.031
   1.0004857   0.0002861  -0.0010257   0.9994718      -0.214       0.117
   1.0001956   0.0003571  -0.0010570   0.9991819      -0.189       0.211
   0.9999053   0.0004281  -0.0010907   0.9988906      -0.088       0.186
   0.9999633   0.0004992  -0.0010784   0.9989486      -0.071       0.145
   1.0000215   0.0005703  -0.0010693   0.9990073      -0.025       0.165
   1.0000790   0.0006414  -0.0010628   0.9990658      -0.047       0.096
   1.0001371   0.0007126  -0.0010586   0.9991242      -0.064       0.041
   0.9986731   0.0006433  -0.0009144   0.9991816      -0.024       0.045
   0.9987318   0.0005740  -0.0007734   0.9992399       0.012       0.142
   0.9987901   0.0005047  -0.0006338   0.9992980      -0.051       0.121
   0.9990842   0.0004355  -0.0004955   0.9995920       0.030       0.130
   0.9993780   0.0003662  -0.0003578   0.9998856       0.035       0.077
   0.9996719   0.0002970  -0.0002207   1.0001795      -0.005      -0.042
   0.9999656   0.0003193  -0.0002112   1.0004737      -0.086      -0.089
   1.0002590   0.0003416  -0.0002016   1.0007679      -0.047      -0.170
   1.0005525   0.0003640  -0.0001919   1.0010620      -0.087      -0.089
   0.9997283   0.0003856  -0.0001819   1.0009006      -0.055       0.031
   0.9995663   0.0004079  -0.0001715   1.0007383       0.027      -0.023
   0.9994039   0.0004300  -0.0001604   1.0005763       0.030      -0.066
   0.9992433   0.0002774   0.0000268   1.0004129       0.071      -0.074
   0.9990824   0.0001250   0.0002147   1.0002497       0.078      -0.046
   0.9989213  -0.0000274   0.0004030   1.0000862       0.099      -0.057
   0.9987600  -0.0001798   0.0005919   0.9999229       0.121      -0.075
   0.9986754  -0.0003321   0.0007352   0.9998370       0.128      -0.083
   0.9985914  -0.0004844   0.0008786   0.9997509       0.119      -0.059
   1.0006099  -0.0003773   0.0007641   0.9996670       0.082      -0.064
   1.0005245  -0.0002706   0.0006473   0.9995834       0.033      -0.015
   1.0004393  -0.0001638   0.0005303   0.9994995       0.072       0.004
   1.0003539  -0.0000571   0.0004165   0.9994155       0.061      -0.018
   1.0002688   0.0000496   0.0003032   0.9993317       0.091       0.018
   1.0005546   0.0001563   0.0001905   0.9996197       0.050       0.016
   1.0008423   0.0000037   0.0003395   0.9999059      -0.070       0.038
   0.9993100  -0.0001490   0.0004883   1.0001920      -0.071      -0.089
   0.9995992  -0.0003019   0.0009013   1.0004781       0.010      -0.136
   0.9998882  -0.0004548   0.0013209   1.0007637       0.026      -0.208
   1.0001769  -0.0006078   0.0017558   1.0010494       0.000      -0.140
   1.0004662  -0.0007608   0.0022094   1.0013350       0.002      -0.081
   1.0002669  -0.0007273   0.0024956   1.0011349       0.082      -0.107
   1.0006394  -0.0006936   0.0028072   1.0009325       0.177      -0.177
   1.0004395  -0.0006600   0.0031605   1.0007304       0.097      -0.146
   1.0002402  -0.0006265   0.0035504   1.0005292       0.028      -0.186
   1.0000408  -0.0005929   0.0039817   1.0003281       0.006      -0.271
   0.9998412  -0.0005593   0.0044616   1.0001265      -0.053      -0.278
