  65.00
  63.00
  61.00
  59.00
  57.00
  55.00
  53.00
  51.00
  49.00
  47.00
  45.00
  43.00
  41.00
  39.00
  37.00
  35.00
  33.00
  31.00
  29.00
  27.00
  25.00
  23.00
  21.00
  19.00
  17.00
  15.00
  13.00
  11.00
   9.00
   7.00
   5.00
   3.00
   1.00
  -1.00
  -3.00
  -5.00
  -7.00
  -9.00
 -11.00
 -13.00
 -14.99
 -17.00
 -19.00
 -21.00
 -23.00
 -25.00
 -27.00
 -29.00
 -31.00
 -33.00
 -35.00
 -37.00
 -39.00
 -40.99
 -42.99
 -44.99
 -46.99
 -49.00
 -51.00
 -53.00
 -55.00
