-61
-59.5
-58
-56.5
-55
-53.5
-52
-50.5
-49
-47.5
-46
-44.5
-43
-41.5
-40
-38.5
-37
-35.5
-34
-32.5
-31
-29.5
-28
-26.5
-25
-23.5
-22
-20.5
-19
-17.5
-16
-14.5
-13
-11.5
-10
-8.5
-7
-5.5
-4
-2.5
-1
0.5
2
3.5
5
6.5
8
9.5
11
12.5
14
15.5
17
18.5
20
21.5
23
24.5
26
27.5
29
30.5
32
33.5
35
36.5
38
39.5
41
42.5
44
45.5
47
48.5
50
51.5
53
54.5
56
57.5
59
60.5
