-60
-58.5
-57
-55.5
-54
-52.5
-51
-49.5
-48
-46.5
-45
-43.5
-42
-40.5
-39
-37.5
-36
-34.5
-33
-31.5
-30
-28.5
-27
-25.5
-24
-22.5
-21
-19.5
-18
-16.5
-15
-13.5
-12
-10.5
-9
-7.5
-6
-4.5
-3
-1.5
0
1.5
3
4.5
6
7.5
9
10.5
12
13.5
15
16.5
18
19.5
21
22.5
24
25.5
27
28.5
30
31.5
33
34.5
36
37.5
39
40.5
42
43.5
45
46.5
48
49.5
51
52.5
54
55.5
57
58.5
60
