-60.5
-59
-57.5
-56
-54.5
-53
-51.5
-50
-48.5
-47
-45.5
-44
-42.5
-41
-39.5
-38
-36.5
-35
-33.5
-32
-30.5
-29
-27.5
-26
-24.5
-23
-21.5
-20
-18.5
-17
-15.5
-14
-12.5
-11
-9.5
-8
-6.5
-5
-3.5
-2
-0.5
1
2.5
4
5.5
7
8.5
10
11.5
13
14.5
16
17.5
19
20.5
22
23.5
25
26.5
28
29.5
31
32.5
34
35.5
37
38.5
40
41.5
43
44.5
46
47.5
49
50.5
52
53.5
55
56.5
58
59.5
61
