   0.9820579  -0.1885798   0.1885798   0.9820579       9.078       0.154
   0.9824164  -0.1892800   0.1892800   0.9824163       9.270       0.014
   0.9833931  -0.1890148   0.1890148   0.9833931       9.421       0.099
   0.9829673  -0.1889598   0.1889598   0.9829674       9.361       0.170
   0.9840061  -0.1902381   0.1902381   0.9840062       9.452       0.225
   0.9841166  -0.1902345   0.1902345   0.9841166       9.433       0.198
   0.9840350  -0.1899460   0.1899460   0.9840350       9.521       0.139
   0.9838179  -0.1902658   0.1902658   0.9838178       9.290      -0.013
   0.9851826  -0.1913765   0.1913764   0.9851826       9.179       0.036
   0.9849300  -0.1915840   0.1915840   0.9849300       8.903      -0.048
   0.9845845  -0.1919215   0.1919215   0.9845845       8.721       0.083
   0.9842556  -0.1923724   0.1923724   0.9842556       8.494       0.028
   0.9840322  -0.1935906   0.1935906   0.9840322       8.107       0.123
   0.9840407  -0.1937508   0.1937508   0.9840408       7.618      -0.056
   0.9843314  -0.1946050   0.1946050   0.9843315       7.262       0.018
   0.9847887  -0.1952155   0.1952155   0.9847887       7.022       0.125
   0.9844724  -0.1952998   0.1952998   0.9844724       6.630       0.037
   0.9853585  -0.1961505   0.1961505   0.9853585       6.394       0.035
   0.9851306  -0.1964878   0.1964877   0.9851306       6.100       0.007
   0.9851566  -0.1968186   0.1968186   0.9851566       5.551      -0.102
   0.9855394  -0.1972052   0.1972052   0.9855394       5.329      -0.081
   0.9862096  -0.1975123   0.1975123   0.9862096       4.945      -0.114
   0.9856543  -0.1978415   0.1978415   0.9856543       4.422      -0.003
   0.9858079  -0.1982791   0.1982791   0.9858080       3.963      -0.129
   0.9853480  -0.1986745   0.1986745   0.9853480       3.522      -0.101
   0.9854741  -0.1983588   0.1983588   0.9854741       3.156      -0.191
   0.9852082  -0.1990806   0.1990806   0.9852082       2.726      -0.214
   0.9846601  -0.1996162   0.1996162   0.9846601       2.313      -0.191
   0.9846255  -0.1998717   0.1998717   0.9846255       1.836      -0.135
   0.9849761  -0.2003577   0.2003577   0.9849762       1.323      -0.228
   0.9852619  -0.2007167   0.2007168   0.9852619       1.020      -0.374
   0.9854628  -0.2008976   0.2008976   0.9854628       0.621      -0.206
   0.9850380  -0.2018161   0.2018161   0.9850380       0.299      -0.106
   0.9856477  -0.2017689   0.2017689   0.9856477      -0.217      -0.213
   0.9856226  -0.2017275   0.2017275   0.9856226      -0.792      -0.150
   0.9856079  -0.2021845   0.2021845   0.9856079      -1.210      -0.054
   0.9853382  -0.2024363   0.2024364   0.9853382      -1.503      -0.296
   0.9850008  -0.2023620   0.2023620   0.9850008      -1.924      -0.186
   0.9851753  -0.2027106   0.2027106   0.9851752      -2.444      -0.205
   0.9852011  -0.2031564   0.2031564   0.9852011      -2.780      -0.172
   0.9856796  -0.2034912   0.2034912   0.9856796      -3.209      -0.116
   0.9864698  -0.2036591   0.2036591   0.9864699      -3.493      -0.110
   0.9869273  -0.2039211   0.2039211   0.9869273      -3.893       0.087
   0.9866629  -0.2053593   0.2053593   0.9866629      -4.281      -0.051
   0.9867510  -0.2052639   0.2052639   0.9867510      -4.855       0.074
   0.9867879  -0.2047441   0.2047441   0.9867879      -5.154      -0.021
   0.9870080  -0.2048694   0.2048694   0.9870079      -5.579      -0.066
   0.9877094  -0.2044368   0.2044368   0.9877093      -5.837       0.152
   0.9875887  -0.2050609   0.2050609   0.9875887      -6.270       0.123
   0.9872665  -0.2059806   0.2059806   0.9872665      -6.485       0.027
   0.9865348  -0.2064056   0.2064056   0.9865348      -6.706      -0.033
   0.9863901  -0.2063830   0.2063830   0.9863901      -6.999       0.037
   0.9861434  -0.2070092   0.2070092   0.9861434      -7.154       0.116
   0.9855312  -0.2071417   0.2071417   0.9855312      -7.290       0.118
   0.9852976  -0.2072212   0.2072212   0.9852976      -7.538       0.151
   0.9861897  -0.2075668   0.2075668   0.9861898      -7.676       0.316
   0.9870635  -0.2074705   0.2074705   0.9870635      -7.580       0.159
   0.9872822  -0.2070004   0.2070004   0.9872821      -7.707       0.254
   0.9863382  -0.2077676   0.2077676   0.9863382      -7.847       0.336
   0.9869594  -0.2090300   0.2090300   0.9869593      -8.053       0.236
   0.9876177  -0.2096264   0.2096264   0.9876176      -8.246       0.285
