   0.9798203  -0.1998803   0.1998803   0.9798203      -1.172       0.166
   0.9797163  -0.2008081   0.2008081   0.9797163      -0.766       0.081
   0.9796347  -0.2025307   0.2025307   0.9796346      -0.357       0.107
   0.9792707  -0.2039079   0.2039079   0.9792707      -0.251       0.197
   0.9791284  -0.2053404   0.2053404   0.9791284       0.132       0.220
   0.9790442  -0.2064567   0.2064567   0.9790443       0.280       0.212
   0.9789919  -0.2074292   0.2074292   0.9789919       0.626       0.218
   0.9789770  -0.2083663   0.2083663   0.9789770       0.617       0.105
   0.9788958  -0.2094318   0.2094318   0.9788958       0.813       0.140
   0.9790761  -0.2105968   0.2105968   0.9790761       0.862       0.025
   0.9789094  -0.2115178   0.2115178   0.9789094       0.984       0.079
   0.9788402  -0.2121745   0.2121745   0.9788401       1.056       0.064
   0.9787686  -0.2126313   0.2126313   0.9787686       1.031       0.139
   0.9787268  -0.2130215   0.2130215   0.9787267       0.890       0.022
   0.9789314  -0.2134604   0.2134604   0.9789313       0.797       0.135
   0.9790882  -0.2137648   0.2137648   0.9790881       0.812       0.158
   0.9785410  -0.2136097   0.2136097   0.9785410       0.745       0.028
   0.9783654  -0.2136850   0.2136850   0.9783654       0.760      -0.023
   0.9785903  -0.2138470   0.2138470   0.9785903       0.760       0.023
   0.9783762  -0.2137725   0.2137725   0.9783762       0.570       0.056
   0.9781259  -0.2135982   0.2135982   0.9781259       0.647       0.066
   0.9779720  -0.2134253   0.2134253   0.9779720       0.609       0.005
   0.9778433  -0.2132333   0.2132333   0.9778433       0.453       0.050
   0.9779022  -0.2131572   0.2131572   0.9779022       0.428      -0.024
   0.9778700  -0.2129898   0.2129898   0.9778700       0.286      -0.038
   0.9774780  -0.2125969   0.2125969   0.9774780       0.294      -0.085
   0.9773724  -0.2124871   0.2124871   0.9773724       0.184      -0.090
   0.9771767  -0.2115384   0.2115384   0.9771767       0.168      -0.061
   0.9770072  -0.2115803   0.2115803   0.9770071       0.105      -0.055
   0.9770819  -0.2118466   0.2118466   0.9770819      -0.009      -0.099
   0.9770891  -0.2118652   0.2118652   0.9770891      -0.005      -0.111
   0.9771954  -0.2119112   0.2119112   0.9771954      -0.011      -0.085
   0.9770467  -0.2118106   0.2118106   0.9770466       0.000      -0.023
   0.9768517  -0.2118566   0.2118566   0.9768517      -0.050      -0.109
   0.9765365  -0.2129762   0.2129762   0.9765365      -0.208      -0.111
   0.9763048  -0.2135775   0.2135775   0.9763047      -0.281      -0.071
   0.9759130  -0.2136172   0.2136172   0.9759130      -0.301      -0.133
   0.9756793  -0.2142876   0.2142876   0.9756793      -0.309      -0.123
   0.9754144  -0.2150515   0.2150515   0.9754144      -0.434      -0.145
   0.9750844  -0.2158127   0.2158127   0.9750844      -0.363      -0.086
   0.9746447  -0.2165092   0.2165092   0.9746447      -0.387      -0.076
   0.9743442  -0.2172488   0.2172488   0.9743443      -0.406      -0.112
   0.9740492  -0.2178574   0.2178574   0.9740492      -0.468      -0.014
   0.9740581  -0.2192685   0.2192685   0.9740581      -0.488      -0.130
   0.9739552  -0.2200424   0.2200424   0.9739553      -0.682      -0.058
   0.9737323  -0.2210335   0.2210335   0.9737323      -0.624      -0.102
   0.9734520  -0.2219948   0.2219948   0.9734519      -0.721      -0.129
   0.9733095  -0.2229808   0.2229808   0.9733095      -0.705      -0.009
   0.9731849  -0.2236599   0.2236599   0.9731849      -0.765      -0.028
   0.9730957  -0.2244316   0.2244316   0.9730957      -0.672      -0.100
   0.9729441  -0.2251785   0.2251785   0.9729441      -0.602      -0.088
   0.9729694  -0.2260388   0.2260388   0.9729695      -0.623      -0.107
   0.9727370  -0.2265544   0.2265544   0.9727370      -0.485      -0.028
   0.9726717  -0.2273929   0.2273930   0.9726717      -0.425      -0.118
   0.9723945  -0.2282693   0.2282693   0.9723945      -0.451      -0.121
   0.9721575  -0.2292299   0.2292299   0.9721575      -0.395       0.025
   0.9716893  -0.2303005   0.2303005   0.9716893      -0.045      -0.055
   0.9711925  -0.2310842   0.2310842   0.9711924       0.040       0.020
   0.9707299  -0.2319006   0.2319006   0.9707298       0.132       0.149
   0.9702922  -0.2327546   0.2327546   0.9702922       0.263       0.119
   0.9702399  -0.2340273   0.2340273   0.9702399       0.217       0.136
