   0.9723319  -0.2051483   0.2071564   0.9783081      12.618       0.477
   0.9713576  -0.2067971   0.2086976   0.9773474      12.624       0.476
   0.9759467  -0.2079470   0.2088825   0.9778951      12.567       0.437
   0.9765729  -0.2070200   0.2078668   0.9785426      12.318       0.452
   0.9773210  -0.2060798   0.2068478   0.9793100      12.220       0.316
   0.9773707  -0.2061928   0.2068917   0.9793746      11.845       0.373
   0.9795938  -0.2072423   0.2072645   0.9787039      11.394       0.338
   0.9797974  -0.2069271   0.2068927   0.9789193      10.910       0.170
   0.9811417  -0.2067683   0.2066818   0.9802724      10.533       0.129
   0.9813966  -0.2073188   0.2071837   0.9805369      10.180      -0.072
   0.9806513  -0.2080088   0.2078287   0.9798021       9.776       0.052
   0.9802054  -0.2076377   0.2077635   0.9801788       9.469       0.161
   0.9794845  -0.2075250   0.2077689   0.9794328       8.946       0.018
   0.9796492  -0.2073090   0.2076647   0.9795738       8.651      -0.025
   0.9803508  -0.2060940   0.2065562   0.9802535       8.236       0.072
   0.9805998  -0.2054108   0.2059742   0.9804817       7.801      -0.160
   0.9807898  -0.2060402   0.2067009   0.9806508       7.414      -0.144
   0.9799891  -0.2061436   0.2071137   0.9808552       7.093       0.025
   0.9801123  -0.2061665   0.2072275   0.9809595       6.691      -0.133
   0.9799170  -0.2068590   0.2080087   0.9807447       6.138       0.031
   0.9808390  -0.2070684   0.2083061   0.9816501       5.793       0.035
   0.9812095  -0.2064861   0.2078643   0.9819920       5.357      -0.109
   0.9810070  -0.2061254   0.2076407   0.9817603       4.816       0.096
   0.9805797  -0.2063968   0.2080475   0.9813032       4.484       0.080
   0.9803652  -0.2069781   0.2087633   0.9810588       4.080       0.097
   0.9814973  -0.2068833   0.2088093   0.9821923       3.668       0.017
   0.9811805  -0.2063482   0.2084056   0.9818476       3.170       0.042
   0.9812573  -0.2061719   0.2083621   0.9818966       2.599       0.142
   0.9808803  -0.2062478   0.2085705   0.9814904       2.016       0.054
   0.9808496  -0.2067395   0.2091970   0.9814300       1.675       0.031
   0.9808721  -0.2061011   0.2086939   0.9814249       1.247      -0.056
   0.9810936  -0.2060854   0.2090872   0.9815601       0.766       0.122
   0.9812014  -0.2062221   0.2096346   0.9815801       0.387       0.144
   0.9811962  -0.2061863   0.2100121   0.9814866      -0.101      -0.021
   0.9805598  -0.2065717   0.2111192   0.9821818      -0.713       0.012
   0.9806393  -0.2058752   0.2108456   0.9821733      -1.288      -0.094
   0.9809909  -0.2055734   0.2109769   0.9824353      -1.724       0.080
   0.9803672  -0.2059319   0.2117745   0.9817119      -2.174       0.107
   0.9801174  -0.2061209   0.2124150   0.9813624      -2.538       0.008
   0.9804468  -0.2051135   0.2118727   0.9815989      -3.031      -0.039
   0.9809735  -0.2050046   0.2122477   0.9820256      -3.505      -0.068
   0.9816464  -0.2060278   0.2133123   0.9826885      -3.864      -0.135
   0.9818559  -0.2059463   0.2132741   0.9828908      -4.311      -0.119
   0.9813014  -0.2062097   0.2137419   0.9830419      -4.784      -0.215
   0.9807454  -0.2059174   0.2135057   0.9824716      -5.241      -0.145
   0.9807690  -0.2064503   0.2141116   0.9824772      -5.592      -0.144
   0.9807236  -0.2061048   0.2138464   0.9824168      -5.805      -0.118
   0.9805716  -0.2057298   0.2135621   0.9822470      -6.245      -0.101
   0.9811747  -0.2054090   0.2133506   0.9828341      -6.505      -0.072
   0.9813809  -0.2057036   0.2137642   0.9830154      -7.041      -0.183
   0.9812957  -0.2052715   0.2133760   0.9825100      -7.448      -0.145
   0.9809291  -0.2059164   0.2143970   0.9820565      -7.754      -0.069
   0.9807180  -0.2054230   0.2143075   0.9817615      -8.174      -0.196
   0.9810281  -0.2047299   0.2140550   0.9819860      -8.613      -0.274
   0.9810562  -0.2046148   0.2144218   0.9819135      -8.966      -0.296
   0.9819767  -0.2058446   0.2161915   0.9827167      -9.316      -0.169
   0.9811698  -0.2055331   0.2164793   0.9819424      -9.643      -0.180
   0.9804629  -0.2048737   0.2164383   0.9811054      -9.869      -0.350
   0.9809753  -0.2050418   0.2173115   0.9814718     -10.221      -0.249
   0.9821045  -0.2048656   0.2179221   0.9824471     -10.641      -0.191
   0.9821962  -0.2046831   0.2185990   0.9823613     -11.036      -0.319
