3
960 1050 9 1 396.000000 3
0
1.000000  0.000000  0.000000  1.000000  0.000 0.000
0
0.991759  -0.066782  0.076440  0.986641  -92.394 79.987
0
1.003093  -0.053136  0.060729  0.998949  -96.919 76.781
0
1.022120  -0.032194  0.048928  1.009353  -68.097 42.261
0
1.032570  -0.038281  0.036569  1.027711  -75.026 81.169
0
0.954454  -0.060448  0.071044  0.946765  -53.302 -27.854
0
0.999110  -0.035836  0.026040  1.020516  -102.181 14.447
6
1.018149  -0.047205  0.021191  1.021729  -56.624 33.611
402.000 528.000 -1.000 -7.000
808.000 919.000 4.000 5.000
843.000 398.000 -2.000 -6.000
131.000 126.000 0.000 10.000
289.000 801.000 1.712 -2.407
70.000 506.000 1.129 -3.663
0
0.959404  -0.052951  0.030769  0.958240  -67.487 -87.118
